1.634658500552177429e-02 8.464410901069641113e-02 6.825511157512664795e-02 -5.042945593595504761e-02 -2.611706405878067017e-02 7.648952305316925049e-02
1.723389700055122375e-02 9.707799553871154785e-02 7.985257357358932495e-02 -5.709097906947135925e-02 -3.142069280147552490e-02 8.850911259651184082e-02
1.952002942562103271e-02 1.023303195834159851e-01 8.289152383804321289e-02 -6.087483465671539307e-02 -3.172821924090385437e-02 9.261520206928253174e-02
2.408673986792564392e-02 1.049185991287231445e-01 8.094090223312377930e-02 -6.446626782417297363e-02 -2.842034399509429932e-02 9.287530183792114258e-02
2.871516533195972443e-02 1.095811724662780762e-01 8.095218241214752197e-02 -6.913030892610549927e-02 -2.608748711645603180e-02 9.518998861312866211e-02
3.220911324024200439e-02 1.153999567031860352e-01 8.324492722749710083e-02 -7.381357252597808838e-02 -2.548290044069290161e-02 9.928562492132186890e-02
3.734014555811882019e-02 1.174671500921249390e-01 8.017739653587341309e-02 -7.743352651596069336e-02 -2.139161527156829834e-02 9.884162992238998413e-02
4.481471702456474304e-02 1.107089966535568237e-01 6.596914678812026978e-02 -7.779034227132797241e-02 -1.056059915572404861e-02 8.837492763996124268e-02
4.785870760679244995e-02 9.311647713184356689e-02 4.535074159502983093e-02 -7.048876583576202393e-02 1.241640304215252399e-03 6.926152855157852173e-02
3.713051602244377136e-02 6.790591776371002197e-02 3.084176592528820038e-02 -5.247265100479125977e-02 3.069664118811488152e-03 4.940604418516159058e-02
1.056654844433069229e-02 3.927301615476608276e-02 2.871415764093399048e-02 -2.483854815363883972e-02 -9.194561280310153961e-03 3.402947634458541870e-02
-2.276751585304737091e-02 8.404633961617946625e-03 3.115259297192096710e-02 7.251798640936613083e-03 -2.703630737960338593e-02 1.978880167007446289e-02
-5.007696896791458130e-02 -2.314853668212890625e-02 2.694408595561981201e-02 3.663621097803115845e-02 -3.847538307309150696e-02 1.875417772680521011e-03
-6.476251035928726196e-02 -4.927335307002067566e-02 1.556995324790477753e-02 5.699926987290382385e-02 -4.006151109933853149e-02 -1.686862856149673462e-02
-6.826288253068923950e-02 -6.369503587484359741e-02 4.703626036643981934e-03 6.593666970729827881e-02 -3.641624003648757935e-02 -2.947163954377174377e-02
-6.717173755168914795e-02 -6.877108663320541382e-02 -1.439743558876216412e-03 6.791455298662185669e-02 -3.289448469877243042e-02 -3.505371510982513428e-02
-6.792146712541580200e-02 -7.289092987775802612e-02 -4.812795668840408325e-03 7.034099102020263672e-02 -3.162730112671852112e-02 -3.882317990064620972e-02
-7.152680307626724243e-02 -7.887398451566696167e-02 -7.194076199084520340e-03 7.514272630214691162e-02 -3.219597041606903076e-02 -4.305580630898475647e-02
-7.523077726364135742e-02 -8.264242857694625854e-02 -7.268527057021856308e-03 7.890567183494567871e-02 -3.394155204296112061e-02 -4.500190168619155884e-02
-7.851439714431762695e-02 -8.345900475978851318e-02 -4.861405584961175919e-03 8.098391443490982056e-02 -3.676032647490501404e-02 -4.419566318392753601e-02
-8.296913653612136841e-02 -8.622411638498306274e-02 -3.273733891546726227e-03 8.459938317537307739e-02 -3.980275616049766541e-02 -4.476392641663551331e-02
-8.756330609321594238e-02 -9.238886833190917969e-02 -4.892188590019941330e-03 8.996608108282089233e-02 -4.132251068949699402e-02 -4.864050075411796570e-02
-8.945407718420028687e-02 -9.769117832183837891e-02 -8.232120424509048462e-03 9.356004744768142700e-02 -4.061406850814819336e-02 -5.295889824628829956e-02
-8.862604945898056030e-02 -9.996425360441207886e-02 -1.122481282800436020e-02 9.428947418928146362e-02 -3.871164098381996155e-02 -5.560154467821121216e-02
-8.730492740869522095e-02 -1.014002636075019836e-01 -1.396701857447624207e-02 9.433897584676742554e-02 -3.668922558426856995e-02 -5.771039426326751709e-02
-8.567043393850326538e-02 -1.021070405840873718e-01 -1.639050245285034180e-02 9.386259317398071289e-02 -3.464995324611663818e-02 -5.930804088711738586e-02
-8.319997042417526245e-02 -9.942793846130371094e-02 -1.626108400523662567e-02 9.129431098699569702e-02 -3.343484178185462952e-02 -5.793038010597229004e-02
-8.556845039129257202e-02 -9.611532092094421387e-02 -1.059866882860660553e-02 9.084264189004898071e-02 -3.740481659770011902e-02 -5.343661457300186157e-02
-1.030545756220817566e-01 -1.010031774640083313e-01 2.026289002969861031e-03 1.020438224077224731e-01 -5.246234312653541565e-02 -4.953143373131752014e-02
-1.341352313756942749e-01 -1.149384528398513794e-01 1.921874657273292542e-02 1.245597228407859802e-01 -7.665263861417770386e-02 -4.786365106701850891e-02
-1.478282213211059570e-01 -1.141319051384925842e-01 3.375007212162017822e-02 1.310063153505325317e-01 -9.082120656967163086e-02 -4.018742591142654419e-02
-8.469617366790771484e-02 -4.764462634921073914e-02 3.705474734306335449e-02 6.615923345088958740e-02 -6.090803071856498718e-02 -5.319777876138687134e-03
1.079655438661575317e-01 1.300430744886398315e-01 2.191802300512790680e-02 -1.191242113709449768e-01 4.305760934948921204e-02 7.593102753162384033e-02
4.124631583690643311e-01 3.922480940818786621e-01 -2.058018371462821960e-02 -4.026105403900146484e-01 2.166534662246704102e-01 1.857856214046478271e-01
7.023310661315917969e-01 6.138284802436828613e-01 -8.901508152484893799e-02 -6.584097743034362793e-01 3.958914279937744141e-01 2.623665034770965576e-01
7.973501086235046387e-01 6.590360403060913086e-01 -1.388629823923110962e-01 -7.285092473030090332e-01 4.683608412742614746e-01 2.600474953651428223e-01
6.090619564056396484e-01 5.067846775054931641e-01 -1.027318686246871948e-01 -5.581722855567932129e-01 3.561123013496398926e-01 2.019936740398406982e-01
2.404435127973556519e-01 2.537253499031066895e-01 1.304954942315816879e-02 -2.472415417432785034e-01 1.138220876455307007e-01 1.333758234977722168e-01
-1.000969782471656799e-01 2.397703472524881363e-03 1.025260090827941895e-01 4.879757016897201538e-02 -1.012773215770721436e-01 5.247719585895538330e-02
-2.738531231880187988e-01 -2.001086771488189697e-01 7.392840087413787842e-02 2.370202541351318359e-01 -1.739272922277450562e-01 -6.305707991123199463e-02
-2.854509055614471436e-01 -3.270820081233978271e-01 -4.147122800350189209e-02 3.063519001007080078e-01 -1.220922544598579407e-01 -1.842411905527114868e-01
-2.183427512645721436e-01 -3.538812696933746338e-01 -1.354922652244567871e-01 2.861903309822082520e-01 -4.159025847911834717e-02 -2.446627765893936157e-01
-1.434562355279922485e-01 -2.920615971088409424e-01 -1.486278325319290161e-01 2.177936583757400513e-01 2.401671605184674263e-03 -2.203401923179626465e-01
-9.067998826503753662e-02 -1.964296549558639526e-01 -1.057502105832099915e-01 1.435485631227493286e-01 7.417885586619377136e-03 -1.511099487543106079e-01
-6.452368944883346558e-02 -1.222734823822975159e-01 -5.770453810691833496e-02 9.339505434036254883e-02 -3.391760867089033127e-03 -9.004197269678115845e-02
-5.760904774069786072e-02 -8.815374225378036499e-02 -3.050157800316810608e-02 7.292686402797698975e-02 -1.342060789465904236e-02 -5.940562859177589417e-02
-5.717597529292106628e-02 -7.914301753044128418e-02 -2.196190692484378815e-02 6.825500726699829102e-02 -1.745664328336715698e-02 -5.061306804418563843e-02
-5.424962192773818970e-02 -7.562644779682159424e-02 -2.139839157462120056e-02 6.504080444574356079e-02 -1.634277962148189545e-02 -4.851381853222846985e-02
-4.830659925937652588e-02 -7.093348354101181030e-02 -2.265060693025588989e-02 5.968800932168960571e-02 -1.282116584479808807e-02 -4.674252122640609741e-02
-4.212632775306701660e-02 -6.535394489765167236e-02 -2.323814295232295990e-02 5.375055223703384399e-02 -9.465073235332965851e-03 -4.424298554658889771e-02
-3.633505478501319885e-02 -5.798020586371421814e-02 -2.163117192685604095e-02 4.710749909281730652e-02 -7.351861800998449326e-03 -3.978000581264495850e-02
-3.077385947108268738e-02 -4.951691627502441406e-02 -1.869309879839420319e-02 4.005224630236625671e-02 -6.012975238263607025e-03 -3.408249095082283020e-02
-2.619750611484050751e-02 -4.373319447040557861e-02 -1.745350658893585205e-02 3.486282750964164734e-02 -4.359218757599592209e-03 -3.053197078406810760e-02
-2.212494798004627228e-02 -4.130646213889122009e-02 -1.911650225520133972e-02 3.163402527570724487e-02 -1.545799081213772297e-03 -3.012353368103504181e-02
-1.730263046920299530e-02 -3.871983289718627930e-02 -2.145597152411937714e-02 2.795132994651794434e-02 2.006596419960260391e-03 -3.003079630434513092e-02
-1.273312140256166458e-02 -3.480511158704757690e-02 -2.223779074847698212e-02 2.371125668287277222e-02 4.714508540928363800e-03 -2.851821109652519226e-02
-1.038767863065004349e-02 -3.164928406476974487e-02 -2.144316397607326508e-02 2.095719985663890839e-02 5.537155549973249435e-03 -2.656505070626735687e-02
-9.215110912919044495e-03 -2.862694486975669861e-02 -1.945510692894458771e-02 1.886830665171146393e-02 5.147750489413738251e-03 -2.404578961431980133e-02
-5.879470612853765488e-03 -2.250244095921516418e-02 -1.647888123989105225e-02 1.415719185024499893e-02 5.327686201781034470e-03 -1.948493346571922302e-02
3.306404687464237213e-04 -1.443362794816493988e-02 -1.453690882772207260e-02 7.033139467239379883e-03 7.467436138540506363e-03 -1.450503803789615631e-02
6.421089638024568558e-03 -1.002947613596916199e-02 -1.629636436700820923e-02 1.784459338523447514e-03 1.139633916318416595e-02 -1.320942025631666183e-02
1.063370611518621445e-02 -1.042367238551378250e-02 -2.102652564644813538e-02 -1.349909289274364710e-04 1.585064083337783813e-02 -1.574534550309181213e-02
1.428575813770294189e-02 -1.046114880591630936e-02 -2.475440315902233124e-02 -1.936813001520931721e-03 1.950592920184135437e-02 -1.756644248962402344e-02
1.795664802193641663e-02 -7.771731819957494736e-03 -2.567934431135654449e-02 -5.091073922812938690e-03 2.178055234253406525e-02 -1.665082387626171112e-02
2.050445228815078735e-02 -6.004045251756906509e-03 -2.639269270002841949e-02 -7.228598464280366898e-03 2.343025617301464081e-02 -1.614432781934738159e-02
2.290397509932518005e-02 -6.604512687772512436e-03 -2.936950884759426117e-02 -8.133041672408580780e-03 2.617729082703590393e-02 -1.798125915229320526e-02
2.804247848689556122e-02 -5.863415542989969254e-03 -3.378731012344360352e-02 -1.108768489211797714e-02 3.100263886153697968e-02 -1.985921896994113922e-02
3.598121553659439087e-02 -2.546340925619006157e-03 -3.844487294554710388e-02 -1.670817099511623383e-02 3.728610649704933167e-02 -2.054137177765369415e-02
4.384585842490196228e-02 -1.420300250174477696e-04 -4.391945153474807739e-02 -2.179995924234390259e-02 4.388453811407089233e-02 -2.205492369830608368e-02
4.982480034232139587e-02 1.298498973483219743e-04 -4.963181167840957642e-02 -2.487048506736755371e-02 4.965688288211822510e-02 -2.474189549684524536e-02
5.457054078578948975e-02 1.717535546049475670e-03 -5.283888429403305054e-02 -2.800963632762432098e-02 5.360304191708564758e-02 -2.554741874337196350e-02
5.907164141535758972e-02 6.411678157746791840e-03 -5.272330343723297119e-02 -3.262504935264587402e-02 5.580736324191093445e-02 -2.317219972610473633e-02
6.290814280509948730e-02 1.162746548652648926e-02 -5.135633051395416260e-02 -3.719711676239967346e-02 5.706579983234405518e-02 -1.989687234163284302e-02
6.605707854032516479e-02 1.660032384097576141e-02 -4.945163801312446594e-02 -4.130998626351356506e-02 5.769562721252441406e-02 -1.642113924026489258e-02
7.034037262201309204e-02 2.475013770163059235e-02 -4.550516977906227112e-02 -4.756329581141471863e-02 5.785392597317695618e-02 -1.030548755079507828e-02
7.656424492597579956e-02 3.700296208262443542e-02 -3.947892785072326660e-02 -5.681830272078514099e-02 5.794850364327430725e-02 -1.121769426390528679e-03
8.290274441242218018e-02 4.973559081554412842e-02 -3.313704207539558411e-02 -6.637454032897949219e-02 5.797120556235313416e-02 8.421252481639385223e-03
8.808331191539764404e-02 6.155683472752571106e-02 -2.651999518275260925e-02 -7.490448653697967529e-02 5.729909986257553101e-02 1.763651333749294281e-02
9.260771423578262329e-02 7.451876252889633179e-02 -1.805764622986316681e-02 -8.364152908325195312e-02 5.536362528800964355e-02 2.834093756973743439e-02
9.463611990213394165e-02 8.643335103988647461e-02 -8.147696033120155334e-03 -9.054144471883773804e-02 5.142649635672569275e-02 3.922116011381149292e-02
8.979625999927520752e-02 9.048309177160263062e-02 7.184908026829361916e-04 -9.005528688430786133e-02 4.455863311886787415e-02 4.563070461153984070e-02
7.714807242155075073e-02 8.469510078430175781e-02 7.542225066572427750e-03 -8.080317825078964233e-02 3.480287641286849976e-02 4.611561447381973267e-02
6.045806407928466797e-02 7.398609817028045654e-02 1.354501862078905106e-02 -6.714012473821640015e-02 2.343433909118175507e-02 4.375517368316650391e-02
4.296093434095382690e-02 6.163230910897254944e-02 1.875845529139041901e-02 -5.226670205593109131e-02 1.205960847437381744e-02 4.019081592559814453e-02
2.452759817242622375e-02 4.574253037571907043e-02 2.133728563785552979e-02 -3.513972833752632141e-02 1.554724527522921562e-03 3.354959562420845032e-02
4.900674801319837570e-03 2.606367878615856171e-02 2.123376354575157166e-02 -1.551984623074531555e-02 -8.184021338820457458e-03 2.367992326617240906e-02
-1.343996636569499969e-02 7.386966608464717865e-03 2.079654671251773834e-02 2.959051867946982384e-03 -1.711840368807315826e-02 1.412669569253921509e-02
-2.802275680005550385e-02 -7.053408306092023849e-03 2.088981308043003082e-02 1.747524924576282501e-02 -2.445928379893302917e-02 6.916346494108438492e-03
-3.888626024127006531e-02 -1.873016171157360077e-02 2.014511637389659882e-02 2.878462150692939758e-02 -2.952448278665542603e-02 6.610509590245783329e-04
-4.637086018919944763e-02 -2.769329771399497986e-02 1.880957186222076416e-02 3.705486282706260681e-02 -3.259580209851264954e-02 -4.493130370974540710e-03
-4.992315545678138733e-02 -3.120147809386253357e-02 1.896794699132442474e-02 4.061894118785858154e-02 -3.445072472095489502e-02 -6.144274026155471802e-03
-5.093035101890563965e-02 -3.093309700489044189e-02 2.025860734283924103e-02 4.099867120385169983e-02 -3.560900688171386719e-02 -5.353521555662155151e-03
-5.280109494924545288e-02 -3.322399035096168518e-02 1.976483501493930817e-02 4.306646808981895447e-02 -3.630454465746879578e-02 -6.758934352546930313e-03
-5.630522593855857849e-02 -3.995550423860549927e-02 1.643068157136440277e-02 4.816146194934844971e-02 -3.637988865375518799e-02 -1.181122381240129471e-02
-5.831396579742431641e-02 -4.599495604634284973e-02 1.231143064796924591e-02 5.216521769762039185e-02 -3.529750928282737732e-02 -1.688883639872074127e-02
-5.679879337549209595e-02 -4.762994125485420227e-02 9.127289988100528717e-03 5.220127478241920471e-02 -3.292078524827957153e-02 -1.925888843834400177e-02
-5.479020625352859497e-02 -4.740612208843231201e-02 7.353288587182760239e-03 5.105644464492797852e-02 -3.102928772568702698e-02 -1.997551694512367249e-02
-5.660150945186614990e-02 -4.764050990343093872e-02 8.944890461862087250e-03 5.207181349396705627e-02 -3.276596218347549438e-02 -1.925904303789138794e-02
-6.114552542567253113e-02 -4.630307480692863464e-02 1.482264418154954910e-02 5.370127409696578979e-02 -3.803141415119171143e-02 -1.564888842403888702e-02
-6.363829970359802246e-02 -4.326377436518669128e-02 2.034938707947731018e-02 5.346777290105819702e-02 -4.209320247173309326e-02 -1.138917077332735062e-02
-6.268684566020965576e-02 -4.270068183541297913e-02 1.998786441981792450e-02 5.274129658937454224e-02 -4.146081581711769104e-02 -1.134016364812850952e-02
-6.076575443148612976e-02 -4.554906114935874939e-02 1.527674868702888489e-02 5.322968214750289917e-02 -3.813606128096580505e-02 -1.518927142024040222e-02
-5.951073020696640015e-02 -4.704505205154418945e-02 1.257862057536840439e-02 5.338507890701293945e-02 -3.613182529807090759e-02 -1.732631772756576538e-02
-5.861874297261238098e-02 -4.463210329413414001e-02 1.411456335335969925e-02 5.176330730319023132e-02 -3.641587868332862854e-02 -1.533339265733957291e-02
-5.796280875802040100e-02 -4.151955246925354004e-02 1.653951965272426605e-02 4.986383765935897827e-02 -3.725775331258773804e-02 -1.251085847616195679e-02
-5.690228193998336792e-02 -3.907502815127372742e-02 1.787249185144901276e-02 4.803860932588577271e-02 -3.735790029168128967e-02 -1.057718601077795029e-02
-5.261931195855140686e-02 -3.234394267201423645e-02 2.028064616024494171e-02 4.244240000844001770e-02 -3.640095517039299011e-02 -5.994936916977167130e-03
-4.264960438013076782e-02 -1.751252077519893646e-02 2.511433139443397522e-02 2.998680435121059418e-02 -3.382551670074462891e-02 3.821028862148523331e-03
-2.829052507877349854e-02 2.027896931394934654e-03 3.028116934001445770e-02 1.302970107644796371e-02 -2.922254987061023712e-02 1.614858023822307587e-02
-1.366573479026556015e-02 2.073347382247447968e-02 3.436652570962905884e-02 -3.606925252825021744e-03 -2.395689673721790314e-02 2.753422409296035767e-02
-2.167587401345372200e-03 3.723456710577011108e-02 3.938345238566398621e-02 -1.755550131201744080e-02 -2.074763551354408264e-02 3.830269724130630493e-02
4.991793539375066757e-03 5.304371565580368042e-02 4.803886637091636658e-02 -2.898012101650238037e-02 -2.155278436839580536e-02 5.053538829088211060e-02
8.513509295880794525e-03 6.947505474090576172e-02 6.093854829668998718e-02 -3.890979662537574768e-02 -2.630588784813880920e-02 6.517555564641952515e-02
1.085379067808389664e-02 8.622313290834426880e-02 7.532610744237899780e-02 -4.845149442553520203e-02 -3.235260024666786194e-02 8.071089535951614380e-02
1.452422793954610825e-02 1.000834852457046509e-01 8.549279719591140747e-02 -5.726647377014160156e-02 -3.554974123835563660e-02 9.271191805601119995e-02
1.954846829175949097e-02 1.071646139025688171e-01 8.752932399511337280e-02 -6.338187307119369507e-02 -3.397850319743156433e-02 9.728331118822097778e-02
2.371118962764739990e-02 1.090765222907066345e-01 8.527769893407821655e-02 -6.644055992364883423e-02 -3.074435889720916748e-02 9.713922441005706787e-02
2.626710943877696991e-02 1.129619255661964417e-01 8.665440976619720459e-02 -6.962195783853530884e-02 -3.018741682171821594e-02 9.979027509689331055e-02
2.992456220090389252e-02 1.213064789772033691e-01 9.142553061246871948e-02 -7.556590437889099121e-02 -3.079626336693763733e-02 1.063500642776489258e-01
3.743334114551544189e-02 1.268536448478698730e-01 8.951654285192489624e-02 -8.206915855407714844e-02 -2.612450532615184784e-02 1.081510186195373535e-01
4.636885225772857666e-02 1.205538362264633179e-01 7.426281273365020752e-02 -8.338975906372070312e-02 -1.402826048433780670e-02 9.734163433313369751e-02
4.865656420588493347e-02 1.014712527394294739e-01 5.284695699810981750e-02 -7.499616593122482300e-02 -2.136482857167720795e-03 7.707697898149490356e-02
3.587524965405464172e-02 7.523859292268753052e-02 3.937967121601104736e-02 -5.549360066652297974e-02 -1.747005269862711430e-03 5.725931748747825623e-02
6.834608968347311020e-03 4.447368532419204712e-02 3.765892609953880310e-02 -2.561160176992416382e-02 -1.538810972124338150e-02 4.107661172747612000e-02
-2.836067043244838715e-02 9.334906004369258881e-03 3.767933323979377747e-02 9.516809135675430298e-03 -3.301188722252845764e-02 2.356136776506900787e-02
-5.492782220244407654e-02 -2.345896326005458832e-02 3.135288879275321960e-02 3.916199132800102234e-02 -4.314696416258811951e-02 4.011417273432016373e-03
-6.568133085966110229e-02 -4.329950362443923950e-02 2.217545174062252045e-02 5.444936826825141907e-02 -4.391166567802429199e-02 -1.051489822566509247e-02
-6.572122126817703247e-02 -4.957498237490653992e-02 1.595626585185527802e-02 5.762924253940582275e-02 -4.078349843621253967e-02 -1.680099964141845703e-02
-6.533929705619812012e-02 -5.350852385163307190e-02 1.175782084465026855e-02 5.945520475506782532e-02 -3.849276527762413025e-02 -2.091716788709163666e-02
-6.940938532352447510e-02 -6.293843686580657959e-02 6.499614566564559937e-03 6.625813245773315430e-02 -3.793255239725112915e-02 -2.829136140644550323e-02
-7.553310692310333252e-02 -7.392245531082153320e-02 1.631260267458856106e-03 7.482813298702239990e-02 -3.857009112834930420e-02 -3.621068596839904785e-02
-8.063383400440216064e-02 -8.057155460119247437e-02 -1.403353053319733590e-06 8.067987859249114990e-02 -4.028284177184104919e-02 -4.032559320330619812e-02
-8.455619215965270996e-02 -8.387961983680725098e-02 5.549979396164417267e-04 8.426441997289657593e-02 -4.253520816564559937e-02 -4.167903587222099304e-02
-8.767790347337722778e-02 -8.709717541933059692e-02 4.709817003458738327e-04 8.742577582597732544e-02 -4.413026571273803711e-02 -4.332127794623374939e-02
-8.924909681081771851e-02 -9.001155942678451538e-02 -8.163990569300949574e-04 8.968956023454666138e-02 -4.433685541152954102e-02 -4.542259126901626587e-02
-8.957351744174957275e-02 -9.175725281238555908e-02 -2.157408744096755981e-03 9.074889123439788818e-02 -4.380700364708900452e-02 -4.695732519030570984e-02
-9.031564742326736450e-02 -9.366295486688613892e-02 -3.240159014239907265e-03 9.207102656364440918e-02 -4.356919229030609131e-02 -4.842121526598930359e-02
-9.062927961349487305e-02 -9.577077627182006836e-02 -4.992712289094924927e-03 9.326253831386566162e-02 -4.282060265541076660e-02 -5.031734704971313477e-02
-8.727049827575683594e-02 -9.555695950984954834e-02 -8.148713968694210052e-03 9.147096425294876099e-02 -3.958186507225036621e-02 -5.177438259124755859e-02
-8.105117082595825195e-02 -9.335757046937942505e-02 -1.221576426178216934e-02 8.727039396762847900e-02 -3.446402400732040405e-02 -5.270171165466308594e-02
-8.063811808824539185e-02 -9.483998268842697144e-02 -1.416893210262060165e-02 8.778844028711318970e-02 -3.329265862703323364e-02 -5.440437793731689453e-02
-9.622750431299209595e-02 -1.049668714404106140e-01 -8.739111013710498810e-03 1.005943119525909424e-01 -4.380274564027786255e-02 -5.675647407770156860e-02
-1.243726760149002075e-01 -1.181282922625541687e-01 6.278522312641143799e-03 1.212181970477104187e-01 -6.536889076232910156e-02 -5.587441474199295044e-02
-1.325326263904571533e-01 -1.076759919524192810e-01 2.496341429650783539e-02 1.201044619083404541e-01 -7.873792201280593872e-02 -4.135796427726745605e-02
-6.050803139805793762e-02 -2.382031828165054321e-02 3.679187595844268799e-02 4.219923913478851318e-02 -4.854863509535789490e-02 6.475657224655151367e-03
1.403918415307998657e-01 1.714291274547576904e-01 3.097704984247684479e-02 -1.559206843376159668e-01 5.490408092737197876e-02 1.012218669056892395e-01
4.393490254878997803e-01 4.345544576644897461e-01 -5.124051123857498169e-03 -4.370803236961364746e-01 2.225005030632019043e-01 2.147524356842041016e-01
6.972649097442626953e-01 6.272090077400207520e-01 -7.060139626264572144e-02 -6.624820232391357422e-01 3.842231929302215576e-01 2.783269882202148438e-01
7.432815432548522949e-01 6.272031664848327637e-01 -1.166646257042884827e-01 -6.855323314666748047e-01 4.302498698234558105e-01 2.552632689476013184e-01
5.228399038314819336e-01 4.492020010948181152e-01 -7.407647371292114258e-02 -4.862416088581085205e-01 2.986843883991241455e-01 1.875255405902862549e-01
1.625132113695144653e-01 2.079200744628906250e-01 4.520821198821067810e-02 -1.852770596742630005e-01 5.879237130284309387e-02 1.264933198690414429e-01
-1.426223516464233398e-01 -1.371493469923734665e-02 1.288842558860778809e-01 7.825071364641189575e-02 -1.357183903455734253e-01 5.749004334211349487e-02
-2.828075587749481201e-01 -1.960911005735397339e-01 8.671253919601440430e-02 2.395592182874679565e-01 -1.848165541887283325e-01 -5.478302389383316040e-02
-2.766326069831848145e-01 -3.175713121891021729e-01 -4.101600125432014465e-02 2.971453666687011719e-01 -1.178985983133316040e-01 -1.793634593486785889e-01
-2.043717950582504272e-01 -3.440468311309814453e-01 -1.397774666547775269e-01 2.741964161396026611e-01 -3.234136104583740234e-02 -2.419596612453460693e-01
-1.306724101305007935e-01 -2.823509275913238525e-01 -1.516990512609481812e-01 2.065095305442810059e-01 1.055396161973476410e-02 -2.170806974172592163e-01
-8.097320795059204102e-02 -1.876453012228012085e-01 -1.065767928957939148e-01 1.343380510807037354e-01 1.289373729377985001e-02 -1.471955478191375732e-01
-5.500968173146247864e-02 -1.126729249954223633e-01 -5.751512572169303894e-02 8.385635167360305786e-02 1.329640159383416176e-03 -8.518257737159729004e-02
-4.395098239183425903e-02 -7.419522106647491455e-02 -3.011241927742958069e-02 5.903295800089836121e-02 -6.899889558553695679e-03 -5.218989774584770203e-02
-4.021348431706428528e-02 -6.231483817100524902e-02 -2.198661677539348602e-02 5.118047446012496948e-02 -9.155096486210823059e-03 -4.210234060883522034e-02
-3.937544673681259155e-02 -6.157725304365158081e-02 -2.206628397107124329e-02 5.039972439408302307e-02 -8.735845796763896942e-03 -4.172509163618087769e-02
-3.772126883268356323e-02 -6.068485602736473083e-02 -2.282004803419113159e-02 4.916336014866828918e-02 -7.537192665040493011e-03 -4.168388992547988892e-02
-3.288323804736137390e-02 -5.488614365458488464e-02 -2.192346751689910889e-02 4.386150091886520386e-02 -5.543558858335018158e-03 -3.839934617280960083e-02
-2.655925229191780090e-02 -4.671159014105796814e-02 -2.018512040376663208e-02 3.659817576408386230e-02 -3.212783252820372581e-03 -3.346592932939529419e-02
-2.163229696452617645e-02 -4.103492200374603271e-02 -1.950916647911071777e-02 3.129819035530090332e-02 -1.042446587234735489e-03 -3.026567399501800537e-02
-1.757514290511608124e-02 -3.792702779173851013e-02 -2.043748460710048676e-02 2.776147052645683289e-02 1.487833680585026741e-03 -2.915971167385578156e-02
-1.255700271576642990e-02 -3.395415470004081726e-02 -2.140831388533115387e-02 2.331730909645557404e-02 4.484445787966251373e-03 -2.766660787165164948e-02
-8.170111104846000671e-03 -2.930731512606143951e-02 -2.110850065946578979e-02 1.879980042576789856e-02 6.484498735517263412e-03 -2.518949657678604126e-02
-7.383916992694139481e-03 -2.755254693329334259e-02 -2.016571164131164551e-02 1.747263967990875244e-02 6.346823647618293762e-03 -2.380987070500850677e-02
-8.714899420738220215e-03 -2.804713882505893707e-02 -1.938133314251899719e-02 1.833317242562770844e-02 5.251614376902580261e-03 -2.364383079111576080e-02
-7.399639580398797989e-03 -2.567360736429691315e-02 -1.836807839572429657e-02 1.650053076446056366e-02 5.398424807935953140e-03 -2.198045141994953156e-02
-2.226914977654814720e-03 -1.958611607551574707e-02 -1.748723722994327545e-02 1.093778200447559357e-02 7.559000514447689056e-03 -1.856207847595214844e-02
3.257128642871975899e-03 -1.476255711168050766e-02 -1.814436167478561401e-02 5.848533473908901215e-03 1.064825709909200668e-02 -1.652425527572631836e-02
6.571535021066665649e-03 -1.311091147363185883e-02 -1.974256895482540131e-02 3.387563163414597511e-03 1.313486974686384201e-02 -1.649454794824123383e-02
9.543043561279773712e-03 -1.080504339188337326e-02 -2.032142132520675659e-02 7.277605473063886166e-04 1.495240163058042526e-02 -1.559002604335546494e-02
1.444571837782859802e-02 -6.531788501888513565e-03 -2.091880328953266144e-02 -3.911754582077264786e-03 1.771927066147327423e-02 -1.370457187294960022e-02
2.004898712038993835e-02 -4.497840069234371185e-03 -2.455035410821437836e-02 -7.788990158587694168e-03 2.228812314569950104e-02 -1.447952818125486374e-02
2.477865852415561676e-02 -6.034221965819597244e-03 -3.090463951230049133e-02 -9.414779022336006165e-03 2.773958630859851837e-02 -1.842827908694744110e-02
3.005577065050601959e-02 -6.288371048867702484e-03 -3.644509986042976379e-02 -1.190986763685941696e-02 3.310523927211761475e-02 -2.135001868009567261e-02
3.695506602525711060e-02 -2.542424714192748070e-03 -3.952058404684066772e-02 -1.718912087380886078e-02 3.815179318189620972e-02 -2.106369659304618835e-02
4.335537180304527283e-02 9.592833230271935463e-04 -4.233466088771820068e-02 -2.210446633398532867e-02 4.287406057119369507e-02 -2.076423354446887970e-02
4.773734137415885925e-02 6.938886945135891438e-04 -4.695929586887359619e-02 -2.416079863905906677e-02 4.745011404156684875e-02 -2.319546975195407867e-02
5.221444740891456604e-02 4.692343936767429113e-04 -5.170668661594390869e-02 -2.630985714495182037e-02 5.203770473599433899e-02 -2.562143839895725250e-02
5.854288116097450256e-02 4.318413324654102325e-03 -5.424995720386505127e-02 -3.142138198018074036e-02 5.639012902975082397e-02 -2.492865547537803650e-02
6.514163315296173096e-02 9.245147928595542908e-03 -5.594934150576591492e-02 -3.720321506261825562e-02 6.048364564776420593e-02 -2.332578599452972412e-02
7.003103196620941162e-02 1.114903111010789871e-02 -5.892450362443923950e-02 -4.061469808220863342e-02 6.442578881978988647e-02 -2.390749007463455200e-02
7.318374514579772949e-02 1.171499118208885193e-02 -6.148958951234817505e-02 -4.246577993035316467e-02 6.733459979295730591e-02 -2.496205642819404602e-02
7.535161077976226807e-02 1.486753020435571671e-02 -6.048073619604110718e-02 -4.508334770798683167e-02 6.796383112668991089e-02 -2.290464937686920166e-02
7.749876379966735840e-02 2.178228087723255157e-02 -5.568371713161468506e-02 -4.955752938985824585e-02 6.664860993623733521e-02 -1.701083220541477203e-02
8.122659474611282349e-02 3.212011232972145081e-02 -4.905136674642562866e-02 -5.656620860099792480e-02 6.515280902385711670e-02 -8.456793613731861115e-03
8.721119910478591919e-02 4.503631219267845154e-02 -4.210235178470611572e-02 -6.606422364711761475e-02 6.462271511554718018e-02 1.515266834758222103e-03
9.286896884441375732e-02 5.758940055966377258e-02 -3.516238555312156677e-02 -7.527215033769607544e-02 6.399713456630706787e-02 1.125017181038856506e-02
9.303291141986846924e-02 6.576993316411972046e-02 -2.709061466157436371e-02 -7.952632009983062744e-02 6.011750921607017517e-02 1.933757029473781586e-02
8.452377468347549438e-02 6.825919449329376221e-02 -1.610824093222618103e-02 -7.651562988758087158e-02 5.043618381023406982e-02 2.604240179061889648e-02
6.927394866943359375e-02 6.690672039985656738e-02 -2.316444646567106247e-03 -6.814274191856384277e-02 3.592677041888237000e-02 3.225786611437797546e-02
5.160157009959220886e-02 6.206855177879333496e-02 1.042008399963378906e-02 -5.681242793798446655e-02 2.068580314517021179e-02 3.622629866003990173e-02
3.368419408798217773e-02 5.117769911885261536e-02 1.744741201400756836e-02 -4.239307716488838196e-02 8.156643249094486237e-03 3.431576862931251526e-02
1.595539413392543793e-02 3.453252837061882019e-02 1.861334778368473053e-02 -2.525230497121810913e-02 -1.325811608694493771e-03 2.657774277031421661e-02
-6.708998989779502153e-05 1.737165264785289764e-02 1.755323447287082672e-02 -8.709693327546119690e-03 -8.785723708570003510e-03 1.745807938277721405e-02
-1.294898148626089096e-02 3.139026463031768799e-03 1.621093414723873138e-02 4.842201247811317444e-03 -1.449739001691341400e-02 9.684349410235881805e-03
-2.379188314080238342e-02 -9.758334606885910034e-03 1.409799419343471527e-02 1.673518493771553040e-02 -1.882329769432544708e-02 2.219608519226312637e-03
-3.399130329489707947e-02 -2.209985256195068359e-02 1.189174968749284744e-02 2.801337465643882751e-02 -2.283297665417194366e-02 -5.025284830480813980e-03
-4.213187843561172485e-02 -3.065591491758823395e-02 1.145743485540151596e-02 3.634672239422798157e-02 -2.674564160406589508e-02 -9.519351646304130554e-03
-4.650351405143737793e-02 -3.419836610555648804e-02 1.231232378631830215e-02 4.030205309391021729e-02 -2.943523600697517395e-02 -1.086646318435668945e-02
-4.844448342919349670e-02 -3.696962445974349976e-02 1.151426415890455246e-02 4.268616810441017151e-02 -3.006396256387233734e-02 -1.264597289264202118e-02
-5.024970695376396179e-02 -4.203891754150390625e-02 8.256342262029647827e-03 4.615490883588790894e-02 -2.934535220265388489e-02 -1.680858619511127472e-02
-5.206127092242240906e-02 -4.648911952972412109e-02 5.603821016848087311e-03 4.928341880440711975e-02 -2.886992506682872772e-02 -2.036113291978836060e-02
-5.318595841526985168e-02 -4.713202267885208130e-02 6.083330139517784119e-03 5.013396590948104858e-02 -2.959442324936389923e-02 -2.044066041707992554e-02
-5.441091582179069519e-02 -4.599392414093017578e-02 8.467423729598522186e-03 5.017144978046417236e-02 -3.137801215052604675e-02 -1.869231462478637695e-02
-5.667137354612350464e-02 -4.602731764316558838e-02 1.070934720337390900e-02 5.137782171368598938e-02 -3.368564322590827942e-02 -1.762701012194156647e-02
-5.952579900622367859e-02 -4.705065116286277771e-02 1.251790951937437057e-02 5.339986085891723633e-02 -3.608733415603637695e-02 -1.727704517543315887e-02
-6.208262965083122253e-02 -4.892620816826820374e-02 1.316570583730936050e-02 5.565510690212249756e-02 -3.771189227700233459e-02 -1.791450008749961853e-02
-6.294710189104080200e-02 -5.224364250898361206e-02 1.071181707084178925e-02 5.773130804300308228e-02 -3.689474239945411682e-02 -2.081946469843387604e-02
-6.026664748787879944e-02 -5.456849187612533569e-02 5.732771009206771851e-03 5.752140656113624573e-02 -3.304468840360641479e-02 -2.450096234679222107e-02
-5.439947172999382019e-02 -5.188534408807754517e-02 2.577958861365914345e-03 5.322566255927085876e-02 -2.855450846254825592e-02 -2.473912574350833893e-02
-4.907083138823509216e-02 -4.516544938087463379e-02 3.990596160292625427e-03 4.719386249780654907e-02 -2.665226534008979797e-02 -2.061536908149719238e-02
-4.807746782898902893e-02 -4.031652212142944336e-02 7.841469720005989075e-03 4.425672441720962524e-02 -2.811648696660995483e-02 -1.619717106223106384e-02
-5.028993636369705200e-02 -3.840491920709609985e-02 1.191532798111438751e-02 4.436810687184333801e-02 -3.122174181044101715e-02 -1.319359615445137024e-02
-5.112832039594650269e-02 -3.334652632474899292e-02 1.774631999433040619e-02 4.221380129456520081e-02 -3.444994613528251648e-02 -7.793562952429056168e-03
-4.687437415122985840e-02 -2.070854231715202332e-02 2.611216530203819275e-02 3.375533595681190491e-02 -3.640336915850639343e-02 2.659544814378023148e-03
-3.543595969676971436e-02 -1.674267696216702461e-03 3.374513611197471619e-02 1.855620369315147400e-02 -3.448133170604705811e-02 1.597810350358486176e-02
-1.758167892694473267e-02 2.086933515965938568e-02 3.847445920109748840e-02 -1.586607657372951508e-03 -2.798112854361534119e-02 2.962999790906906128e-02
7.111526792868971825e-04 4.327322170138359070e-02 4.258923232555389404e-02 -2.191447466611862183e-02 -2.095932327210903168e-02 4.290984570980072021e-02
1.128012407571077347e-02 6.015889346599578857e-02 4.887944832444190979e-02 -3.567974269390106201e-02 -1.883250102400779724e-02 5.450826510787010193e-02
1.223651226609945297e-02 7.052406668663024902e-02 5.826798453927040100e-02 -4.140881821513175964e-02 -2.301949448883533478e-02 6.439200788736343384e-02
1.074203569442033768e-02 8.188524842262268066e-02 7.114282995462417603e-02 -4.638504609465599060e-02 -3.018354251980781555e-02 7.651714235544204712e-02
1.419138256460428238e-02 9.939754009246826172e-02 8.526944369077682495e-02 -5.685059726238250732e-02 -3.553036600351333618e-02 9.233891218900680542e-02
2.176141180098056793e-02 1.158307567238807678e-01 9.420992434024810791e-02 -6.880143284797668457e-02 -3.623438999056816101e-02 1.050187796354293823e-01
2.745787426829338074e-02 1.221158206462860107e-01 9.482072293758392334e-02 -7.474841177463531494e-02 -3.369820863008499146e-02 1.084455028176307678e-01
2.847350202500820160e-02 1.222757324576377869e-01 9.390735626220703125e-02 -7.531939446926116943e-02 -3.272400796413421631e-02 1.080554127693176270e-01
2.784848213195800781e-02 1.262887269258499146e-01 9.847358614206314087e-02 -7.703148573637008667e-02 -3.530498221516609192e-02 1.123759448528289795e-01
3.040649928152561188e-02 1.332728564739227295e-01 1.028873771429061890e-01 -8.184453099966049194e-02 -3.622684627771377563e-02 1.181290149688720703e-01
3.766530007123947144e-02 1.335753649473190308e-01 9.595583379268646240e-02 -8.565028011798858643e-02 -2.913677133619785309e-02 1.148255020380020142e-01
4.530186206102371216e-02 1.224334836006164551e-01 7.715476304292678833e-02 -8.388201892375946045e-02 -1.591791957616806030e-02 9.979859739542007446e-02
4.440195485949516296e-02 1.024138405919075012e-01 5.795570090413093567e-02 -7.339000701904296875e-02 -6.751289591193199158e-03 8.011858165264129639e-02
2.741299569606781006e-02 7.456437498331069946e-02 4.704473167657852173e-02 -5.096012726426124573e-02 -9.774170815944671631e-03 6.072511151432991028e-02
-3.069379366934299469e-03 3.809181600809097290e-02 4.107534140348434448e-02 -1.750185340642929077e-02 -2.203725278377532959e-02 3.955844789743423462e-02
-3.306009247899055481e-02 2.990962821058928967e-04 3.331120312213897705e-02 1.636344939470291138e-02 -3.318069130182266235e-02 1.684404723346233368e-02
-5.071195960044860840e-02 -2.665904723107814789e-02 2.401536889374256134e-02 3.865734115242958069e-02 -3.739932551980018616e-02 -1.262049889191985130e-03
-5.690541118383407593e-02 -4.054038599133491516e-02 1.633517630398273468e-02 4.871123284101486206e-02 -3.667754307389259338e-02 -1.206961367279291153e-02
-5.969734489917755127e-02 -5.014486238360404968e-02 9.564062580466270447e-03 5.495584756135940552e-02 -3.466636314988136292e-02 -2.030022628605365753e-02
-6.355256587266921997e-02 -6.079864501953125000e-02 2.829517005011439323e-03 6.225996837019920349e-02 -3.318097442388534546e-02 -2.902193740010261536e-02
-6.720537692308425903e-02 -6.830563396215438843e-02 -9.880408179014921188e-04 6.784357130527496338e-02 -3.308004513382911682e-02 -3.468398377299308777e-02
-7.014836370944976807e-02 -7.053990662097930908e-02 -3.050646337214857340e-04 7.038915902376174927e-02 -3.492194041609764099e-02 -3.543796762824058533e-02
-7.428677380084991455e-02 -7.353080064058303833e-02 7.671996136195957661e-04 7.392487674951553345e-02 -3.755951672792434692e-02 -3.637892380356788635e-02
-7.844422012567520142e-02 -8.076007664203643799e-02 -2.372095827013254166e-03 7.963116466999053955e-02 -3.805900365114212036e-02 -4.156073182821273804e-02
-7.948452234268188477e-02 -8.717755228281021118e-02 -7.758144289255142212e-03 8.337465673685073853e-02 -3.585144132375717163e-02 -4.746391251683235168e-02
-7.886725664138793945e-02 -8.846760541200637817e-02 -9.633569046854972839e-03 8.369892090559005737e-02 -3.459448739886283875e-02 -4.904442280530929565e-02
-8.097336441278457642e-02 -8.736248314380645752e-02 -6.416752934455871582e-03 8.419271558523178101e-02 -3.729015588760375977e-02 -4.688638448715209961e-02
-8.554141968488693237e-02 -8.716618269681930542e-02 -1.705066650174558163e-03 8.641686290502548218e-02 -4.197889938950538635e-02 -4.444830119609832764e-02
-8.710237592458724976e-02 -8.659242093563079834e-02 3.862109733745455742e-04 8.697779476642608643e-02 -4.381641745567321777e-02 -4.314098879694938660e-02
-8.291704207658767700e-02 -8.479629456996917725e-02 -1.960597699508070946e-03 8.402100950479507446e-02 -4.050485789775848389e-02 -4.343960061669349670e-02
-7.868923246860504150e-02 -8.658586442470550537e-02 -7.891503162682056427e-03 8.276066929101943970e-02 -3.536449372768402100e-02 -4.730536043643951416e-02
-8.494112640619277954e-02 -9.867192804813385010e-02 -1.370226033031940460e-02 9.184015542268753052e-02 -3.556907922029495239e-02 -5.622871592640876770e-02
-1.063725501298904419e-01 -1.213910728693008423e-01 -1.504387706518173218e-02 1.138488426804542542e-01 -4.565478116273880005e-02 -6.821433454751968384e-02
-1.294035762548446655e-01 -1.400376856327056885e-01 -1.070937700569629669e-02 1.346924006938934326e-01 -5.939561128616333008e-02 -7.534119486808776855e-02
-1.131175085902214050e-01 -1.144035086035728455e-01 -1.365798758342862129e-03 1.137715801596641541e-01 -5.594645068049430847e-02 -5.786186456680297852e-02
-1.421642606146633625e-03 1.330992113798856735e-02 1.463302504271268845e-02 -5.939161870628595352e-03 -8.048540912568569183e-03 1.395828928798437119e-02
2.265147715806961060e-01 2.614206075668334961e-01 3.471129015088081360e-02 -2.440383136272430420e-01 9.599382430315017700e-02 1.480134725570678711e-01
5.000719428062438965e-01 5.420650243759155273e-01 4.164607077836990356e-02 -5.212371349334716797e-01 2.294155508279800415e-01 2.917797267436981201e-01
6.685458421707153320e-01 6.943241357803344727e-01 2.529754862189292908e-02 -6.816668510437011719e-01 3.218624293804168701e-01 3.597481846809387207e-01
6.054772734642028809e-01 6.268074512481689453e-01 2.082479000091552734e-02 -6.163686513900756836e-01 2.925133407115936279e-01 3.238047063350677490e-01
3.280615210533142090e-01 3.995812237262725830e-01 7.115100324153900146e-02 -3.639638721942901611e-01 1.285367161035537720e-01 2.354029119014739990e-01
-6.048069801181554794e-03 1.347630769014358521e-01 1.406682282686233521e-01 -6.438481807708740234e-02 -7.338867336511611938e-02 1.377543807029724121e-01
-2.329596877098083496e-01 -9.815170615911483765e-02 1.348294466733932495e-01 1.655855476856231689e-01 -1.839948743581771851e-01 1.834464073181152344e-02
-2.965045571327209473e-01 -2.716385126113891602e-01 2.492865733802318573e-02 2.840770483016967773e-01 -1.608173549175262451e-01 -1.233682185411453247e-01
-2.471440136432647705e-01 -3.528988659381866455e-01 -1.057075336575508118e-01 2.999874055385589600e-01 -7.074809819459915161e-02 -2.292930930852890015e-01
-1.649782061576843262e-01 -3.300414979457855225e-01 -1.650052070617675781e-01 2.474720180034637451e-01 7.612958870595321059e-05 -2.474739253520965576e-01
-1.001372039318084717e-01 -2.443782985210418701e-01 -1.441470980644226074e-01 1.722456812858581543e-01 2.208913862705230713e-02 -1.941989809274673462e-01
-6.438899040222167969e-02 -1.565444022417068481e-01 -9.205836057662963867e-02 1.104873791337013245e-01 1.383991353213787079e-02 -1.242541894316673279e-01
-4.910091683268547058e-02 -1.000479310750961304e-01 -5.089684948325157166e-02 7.461823523044586182e-02 8.018552325665950775e-04 -7.545089721679687500e-02
-4.377872124314308167e-02 -7.654357701539993286e-02 -3.276380524039268494e-02 6.020456552505493164e-02 -5.634079221636056900e-03 -5.464134737849235535e-02
-4.318418726325035095e-02 -7.323261350393295288e-02 -3.004864975810050964e-02 5.822940170764923096e-02 -6.643907632678747177e-03 -5.160951986908912659e-02
-4.382066801190376282e-02 -7.443737238645553589e-02 -3.057246468961238861e-02 5.912287160754203796e-02 -6.633292417973279953e-03 -5.244832113385200500e-02
-4.099748656153678894e-02 -6.866607069969177246e-02 -2.756959199905395508e-02 5.480485782027244568e-02 -6.700555328279733658e-03 -4.805687069892883301e-02
-3.348132967948913574e-02 -5.549309402704238892e-02 -2.187575958669185638e-02 4.445620626211166382e-02 -5.806074943393468857e-03 -3.865063935518264771e-02
-2.566529437899589539e-02 -4.393280297517776489e-02 -1.811304129660129547e-02 3.478478640317916870e-02 -3.775227582082152367e-03 -3.104220144450664520e-02
-2.122773788869380951e-02 -4.029177129268646240e-02 -1.891966164112091064e-02 3.076997771859169006e-02 -1.105779898352921009e-03 -2.966845408082008362e-02
-1.855883747339248657e-02 -4.106027260422706604e-02 -2.242761664092540741e-02 2.982902526855468750e-02 2.011792734265327454e-03 -3.179371356964111328e-02
-1.488086394965648651e-02 -4.053694754838943481e-02 -2.570449002087116241e-02 2.770363911986351013e-02 5.448882933706045151e-03 -3.310402855277061462e-02
-1.063540950417518616e-02 -3.879758343100547791e-02 -2.829143777489662170e-02 2.467399463057518005e-02 8.794010616838932037e-03 -3.346660733222961426e-02
-6.696722935885190964e-03 -3.722240403294563293e-02 -3.061968088150024414e-02 2.192784659564495087e-02 1.189102604985237122e-02 -3.383947163820266724e-02
-1.888136961497366428e-03 -3.339797630906105042e-02 -3.150501474738121033e-02 1.769477874040603638e-02 1.474564429372549057e-02 -3.242282196879386902e-02
3.704482456669211388e-03 -2.636218816041946411e-02 -3.000522404909133911e-02 1.147330179810523987e-02 1.681659556925296783e-02 -2.821672707796096802e-02
7.694485597312450409e-03 -2.031660638749599457e-02 -2.796217054128646851e-02 6.475445814430713654e-03 1.782281138002872467e-02 -2.419216558337211609e-02
1.002324186265468597e-02 -1.788304001092910767e-02 -2.788798511028289795e-02 4.035582765936851501e-03 1.899526827037334442e-02 -2.292093075811862946e-02
1.340132392942905426e-02 -1.620964147150516510e-02 -2.960054948925971985e-02 1.427566749043762684e-03 2.158143185079097748e-02 -2.293271571397781372e-02
1.803466118872165680e-02 -1.379903219640254974e-02 -3.181388974189758301e-02 -2.143579302355647087e-03 2.500742487609386444e-02 -2.284866198897361755e-02
2.174533903598785400e-02 -1.364585850387811661e-02 -3.537444397807121277e-02 -4.073152318596839905e-03 2.860450558364391327e-02 -2.455933764576911926e-02
2.498507313430309296e-02 -1.602195762097835541e-02 -4.100957885384559631e-02 -4.478189162909984589e-03 3.300627693533897400e-02 -2.855306118726730347e-02
3.030759654939174652e-02 -1.586980931460857391e-02 -4.616311192512512207e-02 -7.202711887657642365e-03 3.824526816606521606e-02 -3.104395233094692230e-02
3.750526905059814453e-02 -1.100005209445953369e-02 -4.841760918498039246e-02 -1.325220894068479538e-02 4.298884421586990356e-02 -2.973756007850170135e-02
4.386296495795249939e-02 -5.871128290891647339e-03 -4.960821568965911865e-02 -1.902458816766738892e-02 4.676903411746025085e-02 -2.775481157004833221e-02
4.908860847353935242e-02 -3.928034566342830658e-03 -5.295016244053840637e-02 -2.262693457305431366e-02 5.104755610227584839e-02 -2.841290272772312164e-02
5.611877888441085815e-02 -2.315326128154993057e-03 -5.844517424702644348e-02 -2.695460431277751923e-02 5.730147287249565125e-02 -3.033162839710712433e-02
6.572803109884262085e-02 2.059994498267769814e-03 -6.366836279630661011e-02 -3.394487872719764709e-02 6.469421833753585815e-02 -3.079498745501041412e-02
7.384905964136123657e-02 6.765467114746570587e-03 -6.699915975332260132e-02 -4.033876955509185791e-02 7.036903500556945801e-02 -3.017798997461795807e-02
7.673281431198120117e-02 8.421225473284721375e-03 -6.815256178379058838e-02 -4.256996884942054749e-02 7.233620434999465942e-02 -2.996024303138256073e-02
7.607556879520416260e-02 8.294896222651004791e-03 -6.760130077600479126e-02 -4.213674739003181458e-02 7.172376662492752075e-02 -2.972598560154438019e-02
7.628341019153594971e-02 8.460835553705692291e-03 -6.770128011703491211e-02 -4.229515790939331055e-02 7.190852612257003784e-02 -2.966161258518695831e-02
7.957571744918823242e-02 8.235162124037742615e-03 -7.133803516626358032e-02 -4.382078722119331360e-02 7.540241628885269165e-02 -3.159222006797790527e-02
8.580689877271652222e-02 9.364637546241283417e-03 -7.651532441377639771e-02 -4.752752184867858887e-02 8.112952113151550293e-02 -3.363966941833496094e-02
9.329638630151748657e-02 1.736800372600555420e-02 -7.595200836658477783e-02 -5.532217025756835938e-02 8.462000638246536255e-02 -2.936640381813049316e-02
9.833098948001861572e-02 3.331136703491210938e-02 -6.492732465267181396e-02 -6.584155559539794922e-02 8.162865042686462402e-02 -1.584689877927303314e-02
9.718995541334152222e-02 5.001354217529296875e-02 -4.703738540410995483e-02 -7.362941652536392212e-02 7.207929342985153198e-02 1.513310009613633156e-03
8.990679681301116943e-02 6.027916446328163147e-02 -2.955550141632556915e-02 -7.514386624097824097e-02 5.967111885547637939e-02 1.542015001177787781e-02
7.906258851289749146e-02 6.322733312845230103e-02 -1.583844795823097229e-02 -7.123810797929763794e-02 4.741669073700904846e-02 2.372798137366771698e-02
6.455726921558380127e-02 5.955454707145690918e-02 -4.984372761100530624e-03 -6.216323748230934143e-02 3.479436039924621582e-02 2.727440185844898224e-02
4.471920803189277649e-02 4.869866743683815002e-02 4.070698283612728119e-03 -4.677367210388183594e-02 2.037031203508377075e-02 2.635655179619789124e-02
2.229876257479190826e-02 3.395611047744750977e-02 1.176834106445312500e-02 -2.811248227953910828e-02 5.271703004837036133e-03 2.284627221524715424e-02
3.761659609153866768e-03 2.198349125683307648e-02 1.828180253505706787e-02 -1.279000751674175262e-02 -7.313489448279142380e-03 2.013413980603218079e-02
-8.110060356557369232e-03 1.358482148498296738e-02 2.169271185994148254e-02 -2.649813424795866013e-03 -1.497817970812320709e-02 1.764979586005210876e-02
-1.715856231749057770e-02 2.449828898534178734e-03 1.958095096051692963e-02 7.370486389845609665e-03 -1.840184815227985382e-02 1.102538499981164932e-02
-2.800881490111351013e-02 -1.325859315693378448e-02 1.473631151020526886e-02 2.056095376610755920e-02 -2.132046595215797424e-02 7.302159792743623257e-04
-4.000794142484664917e-02 -2.623171918094158173e-02 1.377678569406270981e-02 3.303331881761550903e-02 -2.679469250142574310e-02 -6.270767655223608017e-03
-4.874566569924354553e-02 -3.104554116725921631e-02 1.769909635186195374e-02 3.987793996930122375e-02 -3.315496444702148438e-02 -6.746096070855855942e-03
-5.200071632862091064e-02 -3.129545599222183228e-02 2.072633244097232819e-02 4.169651865959167480e-02 -3.636660054326057434e-02 -5.360389593988656998e-03
-5.137096345424652100e-02 -3.243583440780639648e-02 1.901461929082870483e-02 4.196071997284889221e-02 -3.524480760097503662e-02 -6.769615225493907928e-03
-4.950292780995368958e-02 -3.540353104472160339e-02 1.421923097223043442e-02 4.248013347387313843e-02 -3.191124275326728821e-02 -1.063782908022403717e-02
-4.934679716825485229e-02 -4.034930840134620667e-02 9.092426858842372894e-03 4.484482854604721069e-02 -2.924641035497188568e-02 -1.565806008875370026e-02
-5.363619327545166016e-02 -4.899882897734642029e-02 4.655495285987854004e-03 5.130520090460777283e-02 -2.916450239717960358e-02 -2.215299010276794434e-02
-6.056629866361618042e-02 -5.872435867786407471e-02 1.812494127079844475e-03 5.963070318102836609e-02 -3.121223114430904388e-02 -2.836251631379127502e-02
-6.405503302812576294e-02 -6.202949956059455872e-02 2.062835730612277985e-03 6.301730871200561523e-02 -3.307644650340080261e-02 -2.983799017965793610e-02
-6.163424625992774963e-02 -5.666317045688629150e-02 5.153479985892772675e-03 5.911296606063842773e-02 -3.339678794145584106e-02 -2.560601755976676941e-02
-5.695041269063949585e-02 -4.944789782166481018e-02 7.762056309729814529e-03 5.315802246332168579e-02 -3.235514461994171143e-02 -2.070991694927215576e-02
-5.365474149584770203e-02 -4.634779691696166992e-02 7.479479536414146423e-03 4.996601864695549011e-02 -3.056955337524414062e-02 -1.931670494377613068e-02
-5.190785601735115051e-02 -4.553158953785896301e-02 6.372709758579730988e-03 4.871254041790962219e-02 -2.912708185613155365e-02 -1.949631422758102417e-02
-5.090901255607604980e-02 -4.371065273880958557e-02 7.091683335602283478e-03 4.734498262405395508e-02 -2.896399237215518951e-02 -1.828467845916748047e-02
-5.100520327687263489e-02 -4.195179790258407593e-02 8.994895033538341522e-03 4.652816057205200195e-02 -2.997234836220741272e-02 -1.650312729179859161e-02
-5.141257867217063904e-02 -4.044479131698608398e-02 1.104476489126682281e-02 4.593727365136146545e-02 -3.122970089316368103e-02 -1.473076455295085907e-02
-4.913264513015747070e-02 -3.522252663969993591e-02 1.407988462597131729e-02 4.212918877601623535e-02 -3.161309286952018738e-02 -1.056378427892923355e-02
-4.337168112397193909e-02 -2.455985918641090393e-02 1.896356046199798584e-02 3.391153737902641296e-02 -3.116208873689174652e-02 -2.748860744759440422e-03
-3.714265301823616028e-02 -1.190201565623283386e-02 2.528507262468338013e-02 2.453030273318290710e-02 -3.121631406247615814e-02 6.726449821144342422e-03
-3.136145696043968201e-02 1.059751957654953003e-03 3.235310316085815430e-02 1.523443683981895447e-02 -3.188997879624366760e-02 1.666291058063507080e-02
-2.263445220887660980e-02 1.715179719030857086e-02 3.970155119895935059e-02 2.847496187314391136e-03 -3.123180568218231201e-02 2.832003869116306305e-02
-1.015024632215499878e-02 3.630203381180763245e-02 4.645152762532234192e-02 -1.300108525902032852e-02 -2.839339524507522583e-02 4.129448905587196350e-02
9.224184905178844929e-04 5.302632972598075867e-02 5.217895656824111938e-02 -2.693625167012214661e-02 -2.574773132801055908e-02 5.260111391544342041e-02
6.743276957422494888e-03 6.633196771144866943e-02 5.964683368802070618e-02 -3.651133552193641663e-02 -2.657622471451759338e-02 6.304433196783065796e-02
9.910722263157367706e-03 8.266005665063858032e-02 7.273073494434356689e-02 -4.625388607382774353e-02 -3.150263056159019470e-02 7.775194942951202393e-02
1.372655387967824936e-02 1.025259792804718018e-01 8.874308317899703979e-02 -5.809577181935310364e-02 -3.754865378141403198e-02 9.566442668437957764e-02
1.689755544066429138e-02 1.163036972284317017e-01 9.938657283782958984e-02 -6.658172607421875000e-02 -4.123676940798759460e-02 1.078484356403350830e-01
1.711650751531124115e-02 1.198255121707916260e-01 1.027183011174201965e-01 -6.844770163297653198e-02 -4.276214912533760071e-02 1.112483143806457520e-01
1.615225151181221008e-02 1.220037490129470825e-01 1.058082804083824158e-01 -6.901733577251434326e-02 -4.478374496102333069e-02 1.138574257493019104e-01
1.830865442752838135e-02 1.288097798824310303e-01 1.103856191039085388e-01 -7.346177101135253906e-02 -4.601044952869415283e-02 1.195584684610366821e-01
2.615299262106418610e-02 1.333138942718505859e-01 1.070466265082359314e-01 -7.966036349534988403e-02 -4.043130949139595032e-02 1.201935708522796631e-01
3.815206140279769897e-02 1.283932328224182129e-01 9.018439054489135742e-02 -8.329364657402038574e-02 -2.599244005978107452e-02 1.093437671661376953e-01
4.794725403189659119e-02 1.158208623528480530e-01 6.785426288843154907e-02 -8.199759572744369507e-02 -9.908631443977355957e-03 9.187426418066024780e-02
4.528123885393142700e-02 9.753853827714920044e-02 5.223599821329116821e-02 -7.154178619384765625e-02 -3.425047732889652252e-03 7.487501204013824463e-02
2.351487614214420319e-02 6.940754503011703491e-02 4.586428776383399963e-02 -4.653488472104072571e-02 -1.114437635987997055e-02 5.759828910231590271e-02
-9.784054011106491089e-03 3.219007328152656555e-02 4.194903373718261719e-02 -1.120542641729116440e-02 -2.586233057081699371e-02 3.702836111187934875e-02
-3.769482672214508057e-02 -3.324830904603004456e-03 3.436842188239097595e-02 2.052984014153480530e-02 -3.603832796216011047e-02 1.546839531511068344e-02
-5.169567838311195374e-02 -2.954916097223758698e-02 2.219414524734020233e-02 4.061250388622283936e-02 -3.696414828300476074e-02 -3.739873180165886879e-03
-5.626354366540908813e-02 -4.891765117645263672e-02 7.430350873619318008e-03 5.253992229700088501e-02 -3.188372775912284851e-02 -2.078313566744327545e-02
-5.801854282617568970e-02 -6.438773125410079956e-02 -6.309816613793373108e-03 6.114163994789123535e-02 -2.589755691587924957e-02 -3.534375131130218506e-02
-5.845212936401367188e-02 -7.289931178092956543e-02 -1.446472201496362686e-02 6.564057618379592896e-02 -2.203390933573246002e-02 -4.363038018345832825e-02
-5.802629888057708740e-02 -7.326535880565643311e-02 -1.532170269638299942e-02 6.564205884933471680e-02 -2.138573117554187775e-02 -4.420474544167518616e-02
-6.056744605302810669e-02 -7.255778461694717407e-02 -1.207349915057420731e-02 6.655821204185485840e-02 -2.426311001181602478e-02 -4.221645370125770569e-02
-6.775899976491928101e-02 -7.734186947345733643e-02 -9.613686241209506989e-03 7.251612842082977295e-02 -2.906461246311664581e-02 -4.340621829032897949e-02
-7.446888089179992676e-02 -8.487697690725326538e-02 -1.040116325020790100e-02 7.962358742952346802e-02 -3.200813382863998413e-02 -4.761721193790435791e-02
-7.521754503250122070e-02 -8.896254748106002808e-02 -1.374714728444814682e-02 8.206946402788162231e-02 -3.071016818284988403e-02 -5.137959495186805725e-02
-7.205560803413391113e-02 -8.880578726530075073e-02 -1.676752977073192596e-02 8.046363294124603271e-02 -2.764788269996643066e-02 -5.283998697996139526e-02
-7.194475829601287842e-02 -8.788173645734786987e-02 -1.592652685940265656e-02 7.998717576265335083e-02 -2.805767394602298737e-02 -5.194731056690216064e-02
-7.705971598625183105e-02 -8.831261843442916870e-02 -1.117927301675081253e-02 8.276059478521347046e-02 -3.300832211971282959e-02 -4.973819106817245483e-02
-8.183632791042327881e-02 -8.972967416048049927e-02 -7.769577670842409134e-03 8.582386374473571777e-02 -3.707214817404747009e-02 -4.870405793190002441e-02
-8.146173506975173950e-02 -9.096039086580276489e-02 -9.373442269861698151e-03 8.623077720403671265e-02 -3.603599593043327332e-02 -5.014777556061744690e-02
-7.966414093971252441e-02 -9.277478605508804321e-02 -1.303985901176929474e-02 8.625542372465133667e-02 -3.328312188386917114e-02 -5.294613912701606750e-02
-8.726155757904052734e-02 -1.016497090458869934e-01 -1.440127473324537277e-02 9.450770914554595947e-02 -3.640542924404144287e-02 -5.807835608720779419e-02
-1.092780902981758118e-01 -1.224492117762565613e-01 -1.321284379810094833e-02 1.158910840749740601e-01 -4.800971224904060364e-02 -6.783440709114074707e-02
-1.248938292264938354e-01 -1.349173933267593384e-01 -9.990581311285495758e-03 1.298841238021850586e-01 -5.741959437727928162e-02 -7.239809632301330566e-02
-8.201412111520767212e-02 -8.062967658042907715e-02 1.479002530686557293e-03 8.126671612262725830e-02 -4.169758781790733337e-02 -3.950621932744979858e-02
7.098206132650375366e-02 1.012864708900451660e-01 3.028705529868602753e-02 -8.621955662965774536e-02 2.043668739497661591e-02 6.583014875650405884e-02
3.223687410354614258e-01 3.919797539710998535e-01 6.933413445949554443e-02 -3.573246598243713379e-01 1.266825199127197266e-01 2.306711524724960327e-01
5.620058178901672363e-01 6.543938517570495605e-01 9.189496189355850220e-02 -6.084296107292175293e-01 2.353014647960662842e-01 3.731317520141601562e-01
6.365034580230712891e-01 7.283519506454467773e-01 9.132841974496841431e-02 -6.826836466789245605e-01 2.728669643402099609e-01 4.098038077354431152e-01
4.741769433021545410e-01 5.796474218368530273e-01 1.051230952143669128e-01 -5.271039605140686035e-01 1.847515553236007690e-01 3.423463702201843262e-01
1.625711768865585327e-01 3.127824962139129639e-01 1.501277685165405273e-01 -2.377490401268005371e-01 6.312720011919736862e-03 2.314294427633285522e-01
-1.245337501168251038e-01 4.257042333483695984e-02 1.671967804431915283e-01 4.100618138909339905e-02 -1.459078490734100342e-01 1.048678979277610779e-01
-2.682411968708038330e-01 -1.773380488157272339e-01 9.099792689085006714e-02 2.228481620550155640e-01 -1.797183603048324585e-01 -4.317404702305793762e-02
-2.670442461967468262e-01 -3.145005106925964355e-01 -4.745028540492057800e-02 2.908168435096740723e-01 -1.098710894584655762e-01 -1.809606105089187622e-01
-1.932877153158187866e-01 -3.436930477619171143e-01 -1.504602432250976562e-01 2.684997618198394775e-01 -2.143921889364719391e-02 -2.470517307519912720e-01
-1.170719340443611145e-01 -2.841527760028839111e-01 -1.671292632818222046e-01 2.005813866853713989e-01 2.502151392400264740e-02 -2.256247252225875854e-01
-6.945036351680755615e-02 -1.937885135412216187e-01 -1.243343055248260498e-01 1.315715163946151733e-01 2.741404436528682709e-02 -1.590651422739028931e-01
-4.897981882095336914e-02 -1.204842180013656616e-01 -7.144109159708023071e-02 8.472241461277008057e-02 1.118549238890409470e-02 -9.598689526319503784e-02
-4.232137277722358704e-02 -7.952194660902023315e-02 -3.711718320846557617e-02 6.098393350839614868e-02 -2.623117528855800629e-03 -5.834881588816642761e-02
-3.911890834569931030e-02 -6.502093374729156494e-02 -2.586705237627029419e-02 5.217399075627326965e-02 -6.610600277781486511e-03 -4.545915499329566956e-02
-3.551104292273521423e-02 -6.391353160142898560e-02 -2.844026871025562286e-02 4.979481920599937439e-02 -3.526667132973670959e-03 -4.617759212851524353e-02
-3.104630857706069946e-02 -6.355500221252441406e-02 -3.255236148834228516e-02 4.732967168092727661e-02 7.214928627945482731e-04 -4.806000366806983948e-02
-2.681915089488029480e-02 -5.861750617623329163e-02 -3.176464885473251343e-02 4.270371049642562866e-02 2.418734598904848099e-03 -4.521560296416282654e-02
-2.435550279915332794e-02 -5.226858705282211304e-02 -2.779753692448139191e-02 3.826399892568588257e-02 1.681071822531521320e-03 -4.005925729870796204e-02
-2.311474643647670746e-02 -4.790943861007690430e-02 -2.467696368694305420e-02 3.543976694345474243e-02 7.791511598043143749e-04 -3.630132228136062622e-02
-2.079822495579719543e-02 -4.350493848323822021e-02 -2.268915809690952301e-02 3.208505734801292419e-02 9.836187819018959999e-04 -3.310088813304901123e-02
-1.616649329662322998e-02 -3.712311387062072754e-02 -2.107075974345207214e-02 2.660805545747280121e-02 2.502242103219032288e-03 -2.913686074316501617e-02
-1.051713619381189346e-02 -3.208156675100326538e-02 -2.170319296419620514e-02 2.127341553568840027e-02 5.604865495115518570e-03 -2.698171511292457581e-02
-5.517714656889438629e-03 -3.103915974497795105e-02 -2.553188987076282501e-02 1.821953430771827698e-02 9.965726174414157867e-03 -2.838329598307609558e-02
-1.233254675753414631e-03 -3.065023571252822876e-02 -2.929530106484889984e-02 1.583097130060195923e-02 1.398812420666217804e-02 -3.002091683447360992e-02
1.840220531448721886e-03 -2.741293795406818390e-02 -2.916343696415424347e-02 1.265253033488988876e-02 1.550599746406078339e-02 -2.827038615942001343e-02
2.368215471506118774e-03 -2.336025983095169067e-02 -2.580568566918373108e-02 1.039620861411094666e-02 1.412574015557765961e-02 -2.454526536166667938e-02
2.210699254646897316e-03 -2.092140913009643555e-02 -2.334198541939258575e-02 9.335217066109180450e-03 1.280849706381559372e-02 -2.212873660027980804e-02
5.983225535601377487e-03 -1.795163005590438843e-02 -2.413081564009189606e-02 6.031630560755729675e-03 1.506560295820236206e-02 -2.106459625065326691e-02
1.462665945291519165e-02 -1.298409886658191681e-02 -2.768174000084400177e-02 -7.776680868119001389e-04 2.115203440189361572e-02 -2.033211290836334229e-02
2.335208654403686523e-02 -9.767591953277587891e-03 -3.307135403156280518e-02 -6.815798580646514893e-03 2.821828424930572510e-02 -2.138694748282432556e-02
2.779985032975673676e-02 -1.110471878200769424e-02 -3.883213549852371216e-02 -8.431775495409965515e-03 3.334013372659683228e-02 -2.494348399341106415e-02
2.945301868021488190e-02 -1.319569814950227737e-02 -4.263808205723762512e-02 -8.212127722799777985e-03 3.608416393399238586e-02 -2.792321890592575073e-02
3.257635235786437988e-02 -1.175654120743274689e-02 -4.436689987778663635e-02 -1.044180151075124741e-02 3.851446509361267090e-02 -2.808682620525360107e-02
3.816464543342590332e-02 -8.683137595653533936e-03 -4.684710130095481873e-02 -1.471791602671146393e-02 4.253969341516494751e-02 -2.778018638491630554e-02
4.448910430073738098e-02 -7.178140804171562195e-03 -5.161946639418601990e-02 -1.860657893121242523e-02 4.806718602776527405e-02 -2.939189039170742035e-02
5.130730941891670227e-02 -5.426916759461164474e-03 -5.672373250126838684e-02 -2.289636060595512390e-02 5.400999262928962708e-02 -3.106174990534782410e-02
5.919020250439643860e-02 -1.236491603776812553e-03 -6.052453443408012390e-02 -2.894680947065353394e-02 5.984542891383171082e-02 -3.086792118847370148e-02
6.707752496004104614e-02 2.389624714851379395e-03 -6.484737247228622437e-02 -3.469501063227653503e-02 6.595315784215927124e-02 -3.119781613349914551e-02
7.377583533525466919e-02 2.692875918000936508e-03 -7.118634879589080811e-02 -3.816419467329978943e-02 7.247966527938842773e-02 -3.417960181832313538e-02
7.973100244998931885e-02 2.776407171040773392e-03 -7.693736255168914795e-02 -4.116438329219818115e-02 7.834109663963317871e-02 -3.700375556945800781e-02
8.499055355787277222e-02 5.528019741177558899e-03 -7.934790849685668945e-02 -4.518376290798187256e-02 8.217001706361770630e-02 -3.687924519181251526e-02
8.792075514793395996e-02 7.816982455551624298e-03 -7.995819300413131714e-02 -4.781717434525489807e-02 8.391589671373367310e-02 -3.611362352967262268e-02
8.867362141609191895e-02 7.483874913305044174e-03 -8.107186108827590942e-02 -4.803234711289405823e-02 8.483795076608657837e-02 -3.688890859484672546e-02
9.068607538938522339e-02 9.962381795048713684e-03 -8.066417276859283447e-02 -5.027467757463455200e-02 8.566261082887649536e-02 -3.544950485229492188e-02
9.608033299446105957e-02 2.108325622975826263e-02 -7.498973608016967773e-02 -5.854893848299980164e-02 8.554875850677490234e-02 -2.701668441295623779e-02
1.013569980859756470e-01 3.779865056276321411e-02 -6.354680657386779785e-02 -6.958373636007308960e-02 8.245432376861572266e-02 -1.289213262498378754e-02
1.001417562365531921e-01 5.184096470475196838e-02 -4.821851104497909546e-02 -7.603669166564941406e-02 7.413426041603088379e-02 1.827543368563055992e-03
9.008791297674179077e-02 5.910516530275344849e-02 -3.082902729511260986e-02 -7.466591894626617432e-02 6.037788093090057373e-02 1.417281478643417358e-02
7.410932332277297974e-02 5.995993316173553467e-02 -1.399569120258092880e-02 -6.711719930171966553e-02 4.399065673351287842e-02 2.302716113626956940e-02
5.563121289014816284e-02 5.410090461373329163e-02 -1.443550456315279007e-03 -5.497279763221740723e-02 2.852376177906990051e-02 2.639308758080005646e-02
3.606662154197692871e-02 4.116008058190345764e-02 5.092757754027843475e-03 -3.874746337532997131e-02 1.549912989139556885e-02 2.321933209896087646e-02
1.716279797255992889e-02 2.545045316219329834e-02 8.216428570449352264e-03 -2.141064032912254333e-02 4.467261489480733871e-03 1.693116873502731323e-02
1.128981471993029118e-03 1.293075270950794220e-02 1.171662192791700363e-02 -7.018886506557464600e-03 -5.339805036783218384e-03 1.238144282251596451e-02
-1.215172186493873596e-02 3.517385106533765793e-03 1.565615646541118622e-02 4.446069709956645966e-03 -1.397290453314781189e-02 9.581299498677253723e-03
-2.407756075263023376e-02 -7.026279345154762268e-03 1.713817752897739410e-02 1.569452136754989624e-02 -2.066124416887760162e-02 4.997489973902702332e-03
-3.410528600215911865e-02 -1.916824653744697571e-02 1.504475623369216919e-02 2.669119089841842651e-02 -2.458390034735202789e-02 -2.140844240784645081e-03
-4.061184823513031006e-02 -2.910605072975158691e-02 1.155496016144752502e-02 3.481918200850486755e-02 -2.603846229612827301e-02 -8.835301734507083893e-03
-4.386105388402938843e-02 -3.515606746077537537e-02 8.710576221346855164e-03 3.944230824708938599e-02 -2.620477043092250824e-02 -1.323770359158515930e-02
-4.529689624905586243e-02 -3.847974538803100586e-02 6.842184811830520630e-03 4.186421632766723633e-02 -2.600605227053165436e-02 -1.579764112830162048e-02
-4.539047181606292725e-02 -3.864733874797821045e-02 6.810364313423633575e-03 4.206548631191253662e-02 -2.610864862799644470e-02 -1.589214988052845001e-02
-4.491256549954414368e-02 -3.611659631133079529e-02 8.867965079843997955e-03 4.060851410031318665e-02 -2.696212381124496460e-02 -1.361033786088228226e-02
-4.622343927621841431e-02 -3.602129593491554260e-02 1.024627871811389923e-02 4.121381416916847229e-02 -2.829212136566638947e-02 -1.288311835378408432e-02
-4.994754120707511902e-02 -4.152088612318038940e-02 8.455781266093254089e-03 4.577860608696937561e-02 -2.917354926466941833e-02 -1.652095280587673187e-02
-5.309549346566200256e-02 -4.775999486446380615e-02 5.369690712541341782e-03 5.039441958069801331e-02 -2.915308251976966858e-02 -2.114337496459484100e-02
-5.341450497508049011e-02 -4.949246719479560852e-02 3.965431358665227890e-03 5.134386569261550903e-02 -2.866768650710582733e-02 -2.265884913504123688e-02
-5.279615148901939392e-02 -4.922939836978912354e-02 3.611162770539522171e-03 5.086815729737281799e-02 -2.827727980911731720e-02 -2.269966155290603638e-02
-5.349335074424743652e-02 -5.117230862379074097e-02 2.373837865889072418e-03 5.220769718289375305e-02 -2.801986411213874817e-02 -2.435179986059665680e-02
-5.411578714847564697e-02 -5.304447561502456665e-02 1.185169210657477379e-03 5.351474881172180176e-02 -2.766682952642440796e-02 -2.594503015279769897e-02
-5.262642353773117065e-02 -5.077541992068290710e-02 2.069622976705431938e-03 5.170609429478645325e-02 -2.732892706990242004e-02 -2.436171099543571472e-02
-5.001626536250114441e-02 -4.595737159252166748e-02 4.335060715675354004e-03 4.803803935647010803e-02 -2.720447070896625519e-02 -2.075449936091899872e-02
-4.896462708711624146e-02 -4.282419010996818542e-02 6.355985533446073532e-03 4.594577848911285400e-02 -2.773796208202838898e-02 -1.811902970075607300e-02
-5.041821300983428955e-02 -4.167892411351203918e-02 8.823077194392681122e-03 4.607777297496795654e-02 -2.968208678066730499e-02 -1.631052233278751373e-02
-5.256513878703117371e-02 -3.961485251784324646e-02 1.293839607387781143e-02 4.612933844327926636e-02 -3.277296572923660278e-02 -1.327248383313417435e-02
-5.282124876976013184e-02 -3.480366617441177368e-02 1.797421835362911224e-02 4.389600828289985657e-02 -3.541748970746994019e-02 -8.406962268054485321e-03
-4.843961820006370544e-02 -2.501807920634746552e-02 2.336730062961578369e-02 3.682375699281692505e-02 -3.595610335469245911e-02 -8.332965080626308918e-04
-3.666620329022407532e-02 -6.146727129817008972e-03 3.045813739299774170e-02 2.144240029156208038e-02 -3.362805768847465515e-02 1.217733975499868393e-02
-1.912546716630458832e-02 2.031589858233928680e-02 3.939931839704513550e-02 -6.447504856623709202e-04 -2.929548360407352448e-02 2.990723028779029846e-02
-4.030496813356876373e-03 4.366863891482353210e-02 4.771179705858230591e-02 -1.991496607661247253e-02 -2.586011588573455811e-02 4.572844877839088440e-02
1.624617376364767551e-03 5.710136890411376953e-02 5.553935095667839050e-02 -2.945249155163764954e-02 -2.693825028836727142e-02 5.632352828979492188e-02
5.225341301411390305e-04 6.871448457241058350e-02 6.824780255556106567e-02 -3.467282280325889587e-02 -3.386911004781723022e-02 6.846019625663757324e-02
2.653496339917182922e-04 8.790895342826843262e-02 8.766490221023559570e-02 -4.410124570131301880e-02 -4.372208938002586365e-02 8.776108920574188232e-02
3.336150897666811943e-03 1.077718883752822876e-01 1.044671088457107544e-01 -5.553765222430229187e-02 -5.056669190526008606e-02 1.061034649610519409e-01
7.470428012311458588e-03 1.156563609838485718e-01 1.082646623253822327e-01 -6.153286248445510864e-02 -5.035634338855743408e-02 1.119607314467430115e-01
1.177317090332508087e-02 1.147669255733489990e-01 1.030841320753097534e-01 -6.325354427099227905e-02 -4.559575021266937256e-02 1.089316159486770630e-01
1.664759777486324310e-02 1.188646852970123291e-01 1.022630929946899414e-01 -6.777905672788619995e-02 -4.277706146240234375e-02 1.105595454573631287e-01
2.164199948310852051e-02 1.290167570114135742e-01 1.073829457163810730e-01 -7.538122683763504028e-02 -4.289134964346885681e-02 1.181870549917221069e-01
2.775104716420173645e-02 1.332195699214935303e-01 1.054929792881011963e-01 -8.052461594343185425e-02 -3.892126306891441345e-02 1.193616911768913269e-01
3.678610175848007202e-02 1.255026012659072876e-01 8.877297490835189819e-02 -8.114329725503921509e-02 -2.602948993444442749e-02 1.071861907839775085e-01
4.477969184517860413e-02 1.093537360429763794e-01 6.463186442852020264e-02 -7.703542709350585938e-02 -9.923649020493030548e-03 8.709056675434112549e-02
4.074372723698616028e-02 8.646292239427566528e-02 4.577460512518882751e-02 -6.356290727853775024e-02 -2.492510713636875153e-03 6.625071913003921509e-02
1.822190918028354645e-02 5.572809651494026184e-02 3.759218379855155945e-02 -3.693689033389091492e-02 -9.673268534243106842e-03 4.678601771593093872e-02
-1.380678452551364899e-02 2.195963263511657715e-02 3.588281199336051941e-02 -4.055876750499010086e-03 -2.484736032783985138e-02 2.901014871895313263e-02
-3.940194845199584961e-02 -7.097340188920497894e-03 3.240437060594558716e-02 2.324408479034900665e-02 -3.591036051511764526e-02 1.271241251379251480e-02
-5.249422416090965271e-02 -3.052121214568614960e-02 2.202393487095832825e-02 4.149357229471206665e-02 -3.728192672133445740e-02 -4.202399402856826782e-03
-5.753678455948829651e-02 -5.090702697634696960e-02 6.643830798566341400e-03 5.421705543994903564e-02 -3.214795514941215515e-02 -2.209701016545295715e-02
-5.997118726372718811e-02 -6.684439629316329956e-02 -6.856577005237340927e-03 6.341593712568283081e-02 -2.664218656718730927e-02 -3.684852644801139832e-02
-6.221105158329010010e-02 -7.570191472768783569e-02 -1.342383027076721191e-02 6.897126138210296631e-02 -2.446399256587028503e-02 -4.460218921303749084e-02
-6.564291566610336304e-02 -7.973831146955490112e-02 -1.396371331065893173e-02 7.269915938377380371e-02 -2.584930136799812317e-02 -4.690301790833473206e-02
-7.109457999467849731e-02 -8.329391479492187500e-02 -1.204596646130084991e-02 7.719708234071731567e-02 -2.947977371513843536e-02 -4.769772663712501526e-02
-7.678259164094924927e-02 -8.654391020536422729e-02 -9.656302630901336670e-03 8.167644590139389038e-02 -3.352344036102294922e-02 -4.809807613492012024e-02
-7.999052852392196655e-02 -8.782911300659179688e-02 -7.820274680852890015e-03 8.394042402505874634e-02 -3.608519583940505981e-02 -4.782284051179885864e-02
-8.115544915199279785e-02 -8.915197849273681641e-02 -8.022002875804901123e-03 8.519483357667922974e-02 -3.657701984047889709e-02 -4.860879480838775635e-02
-8.249478042125701904e-02 -9.305282682180404663e-02 -1.054257433861494064e-02 8.781676739454269409e-02 -3.594840690493583679e-02 -5.183289572596549988e-02
-8.419451117515563965e-02 -9.740138798952102661e-02 -1.311868708580732346e-02 9.084131568670272827e-02 -3.546748310327529907e-02 -5.529512465000152588e-02
-8.493055403232574463e-02 -9.868301451206207275e-02 -1.362338103353977203e-02 9.185578674077987671e-02 -3.558236360549926758e-02 -5.620203912258148193e-02
-8.409112691879272461e-02 -9.722635149955749512e-02 -1.300987787544727325e-02 9.070920199155807495e-02 -3.551162034273147583e-02 -5.520112812519073486e-02
-8.265372365713119507e-02 -9.585016965866088867e-02 -1.312627829611301422e-02 8.929362893104553223e-02 -3.479947522282600403e-02 -5.459713190793991089e-02
-8.436537533998489380e-02 -9.811529517173767090e-02 -1.380696706473827362e-02 9.127207100391387939e-02 -3.536837548017501831e-02 -5.605911090970039368e-02
-9.634414315223693848e-02 -1.110112816095352173e-01 -1.487140264362096786e-02 1.036931052803993225e-01 -4.081967473030090332e-02 -6.299618631601333618e-02
-1.199133247137069702e-01 -1.367309838533401489e-01 -1.706533692777156830e-02 1.282989531755447388e-01 -5.143958330154418945e-02 -7.690732926130294800e-02
-1.308636516332626343e-01 -1.476867049932479858e-01 -1.696611754596233368e-02 1.392032951116561890e-01 -5.690324679017066956e-02 -8.231587707996368408e-02
-7.497167587280273438e-02 -7.836631685495376587e-02 -3.407307900488376617e-03 7.656744122505187988e-02 -3.574799746274948120e-02 -4.088050127029418945e-02
9.338574856519699097e-02 1.269896030426025391e-01 3.355880826711654663e-02 -1.103115826845169067e-01 2.990064956247806549e-02 8.028033375740051270e-02
3.478404581546783447e-01 4.317415356636047363e-01 8.362974226474761963e-02 -3.899650573730468750e-01 1.321116536855697632e-01 2.577035129070281982e-01
5.690840482711791992e-01 6.870061755180358887e-01 1.174203157424926758e-01 -6.282787322998046875e-01 2.259482592344284058e-01 4.022322595119476318e-01
6.116977930068969727e-01 7.395383119583129883e-01 1.272963136434555054e-01 -6.758579015731811523e-01 2.424299418926239014e-01 4.334178566932678223e-01
4.247530698776245117e-01 5.689605474472045898e-01 1.438291817903518677e-01 -4.970254600048065186e-01 1.407067924737930298e-01 3.563774526119232178e-01
1.119394749402999878e-01 2.849465012550354004e-01 1.728685796260833740e-01 -1.985097974538803101e-01 -3.029452823102474213e-02 2.289020121097564697e-01
-1.541121900081634521e-01 5.109150428324937820e-03 1.592441350221633911e-01 7.450587302446365356e-02 -1.565815955400466919e-01 8.221586048603057861e-02
-2.692346572875976562e-01 -2.076473385095596313e-01 6.165931001305580139e-02 2.384804338216781616e-01 -1.653799563646316528e-01 -7.292435318231582642e-02
-2.484987527132034302e-01 -3.203877210617065430e-01 -7.181078195571899414e-02 2.845114767551422119e-01 -8.830235153436660767e-02 -1.960549056529998779e-01
-1.705657839775085449e-01 -3.254027962684631348e-01 -1.547523438930511475e-01 2.480712831020355225e-01 -7.916416041553020477e-03 -2.400825768709182739e-01
-9.958962351083755493e-02 -2.563013136386871338e-01 -1.566425859928131104e-01 1.780118197202682495e-01 2.848039939999580383e-02 -2.064864933490753174e-01
-5.748305097222328186e-02 -1.681374609470367432e-01 -1.106135621666908264e-01 1.128242239356040955e-01 2.654528617858886719e-02 -1.393563002347946167e-01
-3.996137157082557678e-02 -1.017629504203796387e-01 -6.174244359135627747e-02 7.084488123655319214e-02 1.091795973479747772e-02 -8.171883970499038696e-02
-3.647674620151519775e-02 -7.040428370237350464e-02 -3.380606323480606079e-02 5.345176532864570618e-02 -1.322177937254309654e-03 -5.210977792739868164e-02
-3.742700815200805664e-02 -6.458673626184463501e-02 -2.700072526931762695e-02 5.107958614826202393e-02 -5.279084201902151108e-03 -4.584470391273498535e-02
-3.568135574460029602e-02 -6.493885815143585205e-02 -2.911437116563320160e-02 5.041669309139251709e-02 -3.407441778108477592e-03 -4.707580059766769409e-02
-2.947223000228404999e-02 -5.931302160024642944e-02 -2.974543161690235138e-02 4.449875280261039734e-02 3.489801019895821810e-05 -4.453476145863533020e-02
-2.273827232420444489e-02 -5.045365914702415466e-02 -2.768150530755519867e-02 3.669263795018196106e-02 2.431324450299143791e-03 -3.902383893728256226e-02
-1.884900219738483429e-02 -4.540122300386428833e-02 -2.657686546444892883e-02 3.218011185526847839e-02 3.863138379529118538e-03 -3.591950982809066772e-02
-1.584143564105033875e-02 -4.333865642547607422e-02 -2.755340933799743652e-02 2.955506183207035065e-02 5.868789739906787872e-03 -3.540105000138282776e-02
-1.047780364751815796e-02 -3.947899490594863892e-02 -2.904076129198074341e-02 2.486586384475231171e-02 9.294769726693630219e-03 -3.427328541874885559e-02
-4.191196523606777191e-03 -3.448355942964553833e-02 -3.025544062256813049e-02 1.923978701233863831e-02 1.301812473684549332e-02 -3.241220116615295410e-02
-7.066251710057258606e-04 -3.175304085016250610e-02 -3.091755323112010956e-02 1.623192802071571350e-02 1.503924932330846786e-02 -3.134566545486450195e-02
1.541201054351404309e-04 -3.003864176571369171e-02 -3.002806194126605988e-02 1.502748019993305206e-02 1.499969232827425003e-02 -2.998597174882888794e-02
2.022259403020143509e-03 -2.635265700519084930e-02 -2.823248133063316345e-02 1.223006285727024078e-02 1.507912576198577881e-02 -2.723021619021892548e-02
6.394729483872652054e-03 -2.227619476616382599e-02 -2.855126559734344482e-02 7.908622734248638153e-03 1.748802885413169861e-02 -2.539784274995326996e-02
1.142845023423433304e-02 -2.059020660817623138e-02 -3.189485147595405579e-02 4.479190334677696228e-03 2.167577855288982391e-02 -2.627987414598464966e-02
1.578183099627494812e-02 -1.922432146966457367e-02 -3.489071503281593323e-02 1.631239312700927258e-03 2.528342045843601227e-02 -2.709832042455673218e-02
1.964688301086425781e-02 -1.514336746186017990e-02 -3.471870347857475281e-02 -2.285483991727232933e-03 2.706398256123065948e-02 -2.492215856909751892e-02
2.277197502553462982e-02 -1.053308974951505661e-02 -3.327961638569831848e-02 -6.125562358647584915e-03 2.789539471268653870e-02 -2.183628641068935394e-02
2.502053417265415192e-02 -9.005201980471611023e-03 -3.400836512446403503e-02 -8.042221888899803162e-03 2.943729422986507416e-02 -2.141426131129264832e-02
2.798086404800415039e-02 -9.473229758441448212e-03 -3.740762919187545776e-02 -9.318743832409381866e-03 3.270043060183525085e-02 -2.338242717087268829e-02
3.265554085373878479e-02 -9.163849055767059326e-03 -4.175553098320960999e-02 -1.178415399044752121e-02 3.725478053092956543e-02 -2.546261623501777649e-02
3.711819276213645935e-02 -8.873580954968929291e-03 -4.595667496323585510e-02 -1.409381348639726639e-02 4.155079647898674011e-02 -2.745840884745121002e-02
3.979013860225677490e-02 -9.880300611257553101e-03 -4.969568550586700439e-02 -1.487499568611383438e-02 4.468751326203346252e-02 -2.983324602246284485e-02
4.301596060395240784e-02 -9.645763784646987915e-03 -5.274812132120132446e-02 -1.659632287919521332e-02 4.780276492238044739e-02 -3.122292459011077881e-02
4.959569126367568970e-02 -6.294516846537590027e-03 -5.600681900978088379e-02 -2.158935926854610443e-02 5.276573821902275085e-02 -3.115643933415412903e-02
5.801361426711082458e-02 -3.003179328516125679e-03 -6.112323328852653503e-02 -2.748232521116733551e-02 5.959301814436912537e-02 -3.204300627112388611e-02
6.515389680862426758e-02 -2.533282153308391571e-03 -6.777901947498321533e-02 -3.129982948303222656e-02 6.651778519153594971e-02 -3.510987386107444763e-02
7.117750495672225952e-02 -1.869807485491037369e-03 -7.313816994428634644e-02 -3.461517766118049622e-02 7.220721244812011719e-02 -3.746731579303741455e-02
7.801419496536254883e-02 2.240635920315980911e-03 -7.584395259618759155e-02 -4.004414379596710205e-02 7.696545869112014771e-02 -3.681472688913345337e-02
8.538682013750076294e-02 7.082999683916568756e-03 -7.832054048776626587e-02 -4.611649364233016968e-02 8.186344057321548462e-02 -3.567618876695632935e-02
9.150162339210510254e-02 9.175021201372146606e-03 -8.230058103799819946e-02 -5.019672960042953491e-02 8.687498420476913452e-02 -3.662653639912605286e-02
9.598674625158309937e-02 1.150464359670877457e-02 -8.447244763374328613e-02 -5.359390005469322205e-02 9.018756449222564697e-02 -3.652794286608695984e-02
9.921982884407043457e-02 1.879711262881755829e-02 -8.049036562442779541e-02 -5.887520685791969299e-02 8.983726054430007935e-02 -3.088525123894214630e-02
1.002972424030303955e-01 2.935971878468990326e-02 -7.108719646930694580e-02 -6.474917382001876831e-02 8.571680635213851929e-02 -2.093329839408397675e-02
9.869890660047531128e-02 3.898696973919868469e-02 -5.986902862787246704e-02 -6.881768256425857544e-02 7.931698858737945557e-02 -1.054600719362497330e-02
9.537143260240554810e-02 4.828266426920890808e-02 -4.717085883021354675e-02 -7.181312143802642822e-02 7.126267999410629272e-02 4.602415428962558508e-04
8.917393535375595093e-02 5.842169374227523804e-02 -3.077254444360733032e-02 -7.375907152891159058e-02 5.991692468523979187e-02 1.379164028912782669e-02
7.590106874704360962e-02 6.431978940963745117e-02 -1.162753067910671234e-02 -7.004553079605102539e-02 4.370310157537460327e-02 2.638144791126251221e-02
5.464007332921028137e-02 5.998140573501586914e-02 5.237663164734840393e-03 -5.723874270915985107e-02 2.467877045273780823e-02 3.266652673482894897e-02
3.167740255594253540e-02 4.718536511063575745e-02 1.543368212878704071e-02 -3.937146440148353577e-02 8.140041492879390717e-03 3.134861961007118225e-02
1.353858225047588348e-02 3.170771896839141846e-02 1.822846569120883942e-02 -2.258518710732460022e-02 -2.323041204363107681e-03 2.500325441360473633e-02
-2.841149107553064823e-04 1.553506962954998016e-02 1.600419916212558746e-02 -7.612441200762987137e-03 -8.164070546627044678e-03 1.583834178745746613e-02
-1.364484708756208420e-02 -8.165173348970711231e-04 1.303763221949338913e-02 7.221615873277187347e-03 -1.341409608721733093e-02 6.210534367710351944e-03
-2.643248625099658966e-02 -1.387362554669380188e-02 1.269628014415502548e-02 2.013669162988662720e-02 -1.964527741074562073e-02 -5.035704234614968300e-04
-3.562664985656738281e-02 -2.168560028076171875e-02 1.396476384252309799e-02 2.865605801343917847e-02 -2.482452802360057831e-02 -3.829944413155317307e-03
-4.059126973152160645e-02 -2.795126289129257202e-02 1.256367191672325134e-02 3.429514169692993164e-02 -2.653536014258861542e-02 -7.704779505729675293e-03
-4.332350566983222961e-02 -3.615937754511833191e-02 7.045848295092582703e-03 3.976541012525558472e-02 -2.509839460253715515e-02 -1.455499231815338135e-02
-4.539721086621284485e-02 -4.351738095283508301e-02 1.798724406398832798e-03 4.445173218846321106e-02 -2.352569997310638428e-02 -2.080439031124114990e-02
-4.781140759587287903e-02 -4.627752676606178284e-02 1.539935357868671417e-03 4.701868444681167603e-02 -2.468240819871425629e-02 -2.227908559143543243e-02
-5.174475163221359253e-02 -4.660227894783020020e-02 5.203458014875650406e-03 4.917581751942634583e-02 -2.857296168804168701e-02 -2.065172418951988220e-02
-5.661688372492790222e-02 -4.835182428359985352e-02 8.292890153825283051e-03 5.254041776061058044e-02 -3.258253261446952820e-02 -2.008299902081489563e-02
-5.969803407788276672e-02 -5.076538398861885071e-02 8.889416232705116272e-03 5.529901385307312012e-02 -3.436420485377311707e-02 -2.105720527470111847e-02
-5.957526341080665588e-02 -5.176635831594467163e-02 7.727805990725755692e-03 5.569655820727348328e-02 -3.363959491252899170e-02 -2.210409380495548248e-02
-5.802164226770401001e-02 -5.291956663131713867e-02 5.028929561376571655e-03 5.545324087142944336e-02 -3.147760778665542603e-02 -2.393878996372222900e-02
-5.758494138717651367e-02 -5.555276945233345032e-02 2.007553121075034142e-03 5.652852728962898254e-02 -2.976442873477935791e-02 -2.671192027628421783e-02
-5.830160900950431824e-02 -5.618223920464515686e-02 2.171090105548501015e-03 5.719307810068130493e-02 -3.024821355938911438e-02 -2.696079574525356293e-02
-5.859097093343734741e-02 -5.196941271424293518e-02 6.728212349116802216e-03 5.524705722928047180e-02 -3.273147717118263245e-02 -2.261683531105518341e-02
-5.819581821560859680e-02 -4.666816070675849915e-02 1.162298116832971573e-02 5.244947597384452820e-02 -3.502333536744117737e-02 -1.753883995115756989e-02
-5.741657689213752747e-02 -4.488623142242431641e-02 1.257225219160318375e-02 5.123096704483032227e-02 -3.508222475647926331e-02 -1.617339439690113068e-02
-5.543921887874603271e-02 -4.463028907775878906e-02 1.082107238471508026e-02 5.013418570160865784e-02 -3.311470150947570801e-02 -1.692651025950908661e-02
-5.182507634162902832e-02 -4.162218049168586731e-02 1.022541243582963943e-02 4.677368327975273132e-02 -3.087969496846199036e-02 -1.574370078742504120e-02
-4.803380742669105530e-02 -3.656897321343421936e-02 1.149987429380416870e-02 4.227109998464584351e-02 -2.954462543129920959e-02 -1.260084472596645355e-02
-4.462966695427894592e-02 -3.113289736211299896e-02 1.352190971374511719e-02 3.780311718583106995e-02 -2.887891046702861786e-02 -8.853658102452754974e-03
-3.858145326375961304e-02 -2.082499675452709198e-02 1.776447892189025879e-02 2.963128872215747833e-02 -2.808080986142158508e-02 -1.518226694315671921e-03
-2.729726210236549377e-02 -8.802453521639108658e-04 2.643258869647979736e-02 1.403753738850355148e-02 -2.687348239123821259e-02 1.283470634371042252e-02
-1.376196462661027908e-02 2.341671846807003021e-02 3.722180798649787903e-02 -4.881967790424823761e-03 -2.551281824707984924e-02 3.034964203834533691e-02
-3.559952601790428162e-03 4.155332967638969421e-02 4.513887688517570496e-02 -1.905364170670509338e-02 -2.429802343249320984e-02 4.328475892543792725e-02
1.920793671160936356e-03 5.217592418193817139e-02 5.017758160829544067e-02 -2.706580609083175659e-02 -2.401551418006420135e-02 5.104653909802436829e-02
5.865591578185558319e-03 6.446896493434906006e-02 5.841958895325660706e-02 -3.512690961360931396e-02 -2.618039026856422424e-02 6.133297458291053772e-02
1.034915167838335037e-02 8.400274068117141724e-02 7.348159700632095337e-02 -4.712023213505744934e-02 -3.152208030223846436e-02 7.870233803987503052e-02
1.408703625202178955e-02 1.044434383511543274e-01 9.030518680810928345e-02 -5.924115702509880066e-02 -3.808383271098136902e-02 9.738991409540176392e-02
1.633122004568576813e-02 1.171850636601448059e-01 1.009061858057975769e-01 -6.676562875509262085e-02 -4.224601387977600098e-02 1.090849712491035461e-01
1.821190118789672852e-02 1.226169615983963013e-01 1.044560298323631287e-01 -7.043350487947463989e-02 -4.307296127080917358e-02 1.135817319154739380e-01
1.979767158627510071e-02 1.263604909181594849e-01 1.065391674637794495e-01 -7.309988141059875488e-02 -4.335223883390426636e-02 1.164852306246757507e-01
2.171960286796092987e-02 1.294251978397369385e-01 1.076297536492347717e-01 -7.560055702924728394e-02 -4.298993945121765137e-02 1.185402199625968933e-01
2.826127409934997559e-02 1.289906501770019531e-01 1.006852462887763977e-01 -7.866358757019042969e-02 -3.627466410398483276e-02 1.148202791810035706e-01
4.089067131280899048e-02 1.231069788336753845e-01 8.227385580539703369e-02 -8.202247321605682373e-02 -2.074144780635833740e-02 1.026449352502822876e-01
5.031919106841087341e-02 1.092144995927810669e-01 5.904440209269523621e-02 -7.974608242511749268e-02 -4.390769638121128082e-03 8.407786488533020020e-02
4.314899444580078125e-02 8.499970287084579468e-02 4.201011732220649719e-02 -6.401205062866210938e-02 5.483214627020061016e-04 6.347579509019851685e-02
1.672197692096233368e-02 5.267375335097312927e-02 3.605383634567260742e-02 -3.463626280426979065e-02 -9.686654433608055115e-03 4.436619952321052551e-02
-1.697643287479877472e-02 1.850202120840549469e-02 3.551509603857994080e-02 -7.330466178245842457e-04 -2.625240385532379150e-02 2.702498249709606171e-02
-4.329311847686767578e-02 -1.234418619424104691e-02 3.095200285315513611e-02 2.782370522618293762e-02 -3.710584715008735657e-02 9.312262758612632751e-03
-5.720603093504905701e-02 -3.712588548660278320e-02 2.008261904120445251e-02 4.715539887547492981e-02 -3.862862661480903625e-02 -8.521838113665580750e-03
-6.215514615178108215e-02 -5.293714627623558044e-02 9.214366786181926727e-03 5.750134214758872986e-02 -3.570812940597534180e-02 -2.184635587036609650e-02
-6.308316439390182495e-02 -5.980948358774185181e-02 3.234500996768474579e-03 6.134886294603347778e-02 -3.321933746337890625e-02 -2.823406085371971130e-02
-6.364794075489044189e-02 -6.434115767478942871e-02 -7.737703272141516209e-04 6.387338042259216309e-02 -3.147844597697257996e-02 -3.247643262147903442e-02
-6.597239524126052856e-02 -7.325731962919235229e-02 -7.366345264017581940e-03 6.953773647546768188e-02 -2.927514724433422089e-02 -4.024605080485343933e-02
-6.970456242561340332e-02 -8.482147008180618286e-02 -1.515025272965431213e-02 7.727397978305816650e-02 -2.719653770327568054e-02 -4.997250810265541077e-02
-7.333604246377944946e-02 -9.257414191961288452e-02 -1.922713033854961395e-02 8.303467184305191040e-02 -2.699470333755016327e-02 -5.593993142247200012e-02
-7.676968723535537720e-02 -9.503685683012008667e-02 -1.827731356024742126e-02 8.599935472011566162e-02 -2.926460094749927521e-02 -5.672090873122215271e-02
-8.016090095043182373e-02 -9.568609297275543213e-02 -1.561770122498273849e-02 8.801195770502090454e-02 -3.234662488102912903e-02 -5.570223182439804077e-02
-8.204080164432525635e-02 -9.645460546016693115e-02 -1.455230172723531723e-02 8.933685719966888428e-02 -3.380776941776275635e-02 -5.550816655158996582e-02
-8.188001066446304321e-02 -9.739538282155990601e-02 -1.558947283774614334e-02 8.972536772489547729e-02 -3.316850215196609497e-02 -5.645246803760528564e-02
-8.165461570024490356e-02 -9.955429285764694214e-02 -1.784180104732513428e-02 9.066624939441680908e-02 -3.191962093114852905e-02 -5.865924432873725891e-02
-8.171346038579940796e-02 -1.019001826643943787e-01 -2.004942297935485840e-02 9.183511137962341309e-02 -3.086719475686550140e-02 -6.100109964609146118e-02
-7.981775701045989990e-02 -1.002282276749610901e-01 -2.032260224223136902e-02 9.004171192646026611e-02 -2.979558333754539490e-02 -6.037661805748939514e-02
-7.941600680351257324e-02 -9.697692841291427612e-02 -1.758502051234245300e-02 8.821317553520202637e-02 -3.093549795448780060e-02 -5.737528949975967407e-02
-9.237207472324371338e-02 -1.057892665266990662e-01 -1.348235923796892166e-02 9.906652569770812988e-02 -3.940907493233680725e-02 -5.963382124900817871e-02
-1.215850487351417542e-01 -1.322425007820129395e-01 -1.064977236092090607e-02 1.268585622310638428e-01 -5.540227144956588745e-02 -7.136455178260803223e-02
-1.382478475570678711e-01 -1.456559598445892334e-01 -7.296766154468059540e-03 1.418955177068710327e-01 -6.543869525194168091e-02 -7.642061263322830200e-02
-8.393244445323944092e-02 -7.915655523538589478e-02 4.894842859357595444e-03 8.152002841234207153e-02 -4.442255198955535889e-02 -3.715739026665687561e-02
8.743332326412200928e-02 1.206671297550201416e-01 3.320653364062309265e-02 -1.040857285261154175e-01 2.711191028356552124e-02 7.688165456056594849e-02
3.496683835983276367e-01 4.193843305110931396e-01 6.945673376321792603e-02 -3.846576809883117676e-01 1.401884704828262329e-01 2.444003522396087646e-01
5.833626985549926758e-01 6.752102375030517578e-01 9.142067283391952515e-02 -6.295384168624877930e-01 2.461669743061065674e-01 3.833207786083221436e-01
6.376519799232482910e-01 7.350841760635375977e-01 9.701343625783920288e-02 -6.866740584373474121e-01 2.705755531787872314e-01 4.160498678684234619e-01
4.524807035923004150e-01 5.697221159934997559e-01 1.169974580407142639e-01 -5.113453865051269531e-01 1.679553389549255371e-01 3.433647155761718750e-01
1.293609142303466797e-01 2.847655713558197021e-01 1.553692370653152466e-01 -2.071627527475357056e-01 -1.290845591574907303e-02 2.201007157564163208e-01
-1.516876369714736938e-01 3.111060243099927902e-03 1.548689901828765869e-01 7.430520653724670410e-02 -1.532985270023345947e-01 7.905621826648712158e-02
-2.788762152194976807e-01 -2.097387462854385376e-01 6.920257955789566040e-02 2.443297654390335083e-01 -1.741297245025634766e-01 -7.018276304006576538e-02
-2.644707560539245605e-01 -3.242405354976654053e-01 -5.976305529475212097e-02 2.943010926246643066e-01 -1.024768203496932983e-01 -1.919157356023788452e-01
-1.867954134941101074e-01 -3.321928977966308594e-01 -1.454527229070663452e-01 2.593775987625122070e-01 -2.079471759498119354e-02 -2.387598901987075806e-01
-1.111331507563591003e-01 -2.617256641387939453e-01 -1.506479680538177490e-01 1.863214671611785889e-01 1.966889947652816772e-02 -2.061640620231628418e-01
-6.354335695505142212e-02 -1.682503223419189453e-01 -1.046652570366859436e-01 1.158534735441207886e-01 2.051913179457187653e-02 -1.364605575799942017e-01
-4.397333413362503052e-02 -9.970869123935699463e-02 -5.556520074605941772e-02 7.186997681856155396e-02 5.780202336609363556e-03 -7.762932032346725464e-02
-4.102363064885139465e-02 -7.124169170856475830e-02 -2.998444810509681702e-02 5.620343238115310669e-02 -5.534351337701082230e-03 -5.057966336607933044e-02
-4.118724912405014038e-02 -6.711205095052719116e-02 -2.573368139564990997e-02 5.422946810722351074e-02 -7.742275483906269073e-03 -4.637722298502922058e-02
-3.705691546201705933e-02 -6.533783674240112305e-02 -2.822488546371459961e-02 5.127922445535659790e-02 -4.422897938638925552e-03 -4.675063118338584900e-02
-3.046510741114616394e-02 -5.902294442057609558e-02 -2.865998633205890656e-02 4.484089463949203491e-02 -9.013360831886529922e-04 -4.384740814566612244e-02
-2.626765891909599304e-02 -5.252757295966148376e-02 -2.644630707800388336e-02 3.948723152279853821e-02 1.071339793270453811e-04 -3.952457010746002197e-02
-2.442070282995700836e-02 -4.704128578305244446e-02 -2.277772873640060425e-02 3.574582934379577637e-02 -7.552001043222844601e-04 -3.495825082063674927e-02
-2.102927491068840027e-02 -4.021520912647247314e-02 -1.925037056207656860e-02 3.053304925560951233e-02 -7.663292344659566879e-04 -2.977604791522026062e-02
-1.514260098338127136e-02 -3.389453142881393433e-02 -1.873354613780975342e-02 2.438532747328281403e-02 1.920135575346648693e-03 -2.635218389332294464e-02
-9.296046569943428040e-03 -3.127809241414070129e-02 -2.192652598023414612e-02 2.019659802317619324e-02 6.377886980772018433e-03 -2.665333636105060577e-02
-4.527287557721138000e-03 -2.993326820433139801e-02 -2.535491995513439178e-02 1.720399037003517151e-02 1.041967421770095825e-02 -2.771569974720478058e-02
1.178615711978636682e-04 -2.598483674228191376e-02 -2.606984414160251617e-02 1.292667537927627563e-02 1.310346461832523346e-02 -2.609752304852008820e-02
4.183041397482156754e-03 -2.129600755870342255e-02 -2.543509006500244141e-02 8.528130128979682922e-03 1.486701145768165588e-02 -2.340896427631378174e-02
6.366166751831769943e-03 -1.911793090403079987e-02 -2.538665384054183960e-02 6.336000282317399979e-03 1.597061567008495331e-02 -2.227055095136165619e-02
8.047630079090595245e-03 -1.711204275488853455e-02 -2.504929713904857635e-02 4.529161378741264343e-03 1.663103513419628143e-02 -2.109164185822010040e-02
1.151348836719989777e-02 -1.236635260283946991e-02 -2.387107908725738525e-02 4.843558417633175850e-04 1.772381365299224854e-02 -1.812049001455307007e-02
1.552189327776432037e-02 -8.445423096418380737e-03 -2.408320270478725433e-02 -3.451545722782611847e-03 1.976646855473518372e-02 -1.622910052537918091e-02
1.795514486730098724e-02 -9.378161281347274780e-03 -2.743734233081340790e-02 -4.236665088683366776e-03 2.260478585958480835e-02 -1.832612045109272003e-02
2.086730115115642548e-02 -1.127000804990530014e-02 -3.207624703645706177e-02 -4.815773572772741318e-03 2.636436745524406433e-02 -2.157935127615928650e-02
2.737014368176460266e-02 -8.286647498607635498e-03 -3.542233258485794067e-02 -9.587755426764488220e-03 3.131134435534477234e-02 -2.179740555584430695e-02
3.545305877923965454e-02 -3.016842063516378403e-03 -3.819528222084045410e-02 -1.621545664966106415e-02 3.676911070942878723e-02 -2.059795707464218140e-02
4.048797115683555603e-02 -1.358808251097798347e-03 -4.168384149670600891e-02 -1.947837695479393005e-02 4.104075208306312561e-02 -2.152839489281177521e-02
4.228989407420158386e-02 -1.589095685631036758e-03 -4.387113079428672791e-02 -2.023068815469741821e-02 4.304238036274909973e-02 -2.270378731191158295e-02
4.494482651352882385e-02 1.346050295978784561e-03 -4.365231469273567200e-02 -2.308295667171478271e-02 4.428692907094955444e-02 -2.106855995953083038e-02
5.104646459221839905e-02 5.845505744218826294e-03 -4.519613459706306458e-02 -2.847297675907611847e-02 4.812554270029067993e-02 -1.956262066960334778e-02
5.966677516698837280e-02 7.002081256359815598e-03 -5.257842317223548889e-02 -3.338820114731788635e-02 5.610733479261398315e-02 -2.271940559148788452e-02
6.882247328758239746e-02 5.266300402581691742e-03 -6.344746053218841553e-02 -3.704549744725227356e-02 6.609318405389785767e-02 -2.910678274929523468e-02
7.647756487131118774e-02 4.345500376075506210e-03 -7.205474376678466797e-02 -4.034991189837455750e-02 7.421720027923583984e-02 -3.391902893781661987e-02
8.009014278650283813e-02 4.092449788004159927e-03 -7.597535103559494019e-02 -4.202031716704368591e-02 7.798869162797927856e-02 -3.599082306027412415e-02
7.927014678716659546e-02 2.599416999146342278e-03 -7.669003307819366455e-02 -4.090637341141700745e-02 7.795140147209167480e-02 -3.706529363989830017e-02
7.815897464752197266e-02 2.660286147147417068e-03 -7.550559192895889282e-02 -4.043332114815711975e-02 7.683105021715164185e-02 -3.644738718867301941e-02
8.124190568923950195e-02 8.340157568454742432e-03 -7.287038862705230713e-02 -4.483361914753913879e-02 7.707498967647552490e-02 -3.232374414801597595e-02
8.757068216800689697e-02 1.774692535400390625e-02 -6.979841738939285278e-02 -5.267956107854843140e-02 7.870094478130340576e-02 -2.611896209418773651e-02
9.265347570180892944e-02 2.688933536410331726e-02 -6.577976047992706299e-02 -5.975867807865142822e-02 7.921504229307174683e-02 -1.956024952232837677e-02
9.458535164594650269e-02 3.756542503833770752e-02 -5.704593285918235779e-02 -6.605035066604614258e-02 7.579733431339263916e-02 -9.855110198259353638e-03
9.362279623746871948e-02 5.250559374690055847e-02 -4.110839217901229858e-02 -7.305257767438888550e-02 6.734187155961990356e-02 5.610089283436536789e-03
8.768044412136077881e-02 6.598145514726638794e-02 -2.164299786090850830e-02 -7.684236019849777222e-02 5.463262274861335754e-02 2.213219180703163147e-02
7.459623366594314575e-02 6.916753202676773071e-02 -5.352572537958621979e-03 -7.191081345081329346e-02 3.992049768567085266e-02 3.194167837500572205e-02
5.679886043071746826e-02 6.202553957700729370e-02 5.277730058878660202e-03 -5.944475904107093811e-02 2.567575685679912567e-02 3.374441713094711304e-02
3.850184008479118347e-02 5.105128511786460876e-02 1.254960149526596069e-02 -4.478295519948005676e-02 1.289931219071149826e-02 3.189089521765708923e-02
2.072167396545410156e-02 3.840165212750434875e-02 1.764488779008388519e-02 -2.950865775346755981e-02 1.517635188065469265e-03 2.805449254810810089e-02
2.741228556260466576e-03 2.217236533761024475e-02 1.939071342349052429e-02 -1.235449034720659256e-02 -8.298469707369804382e-03 2.075967192649841309e-02
-1.390990801155567169e-02 4.550428595393896103e-03 1.842017099261283875e-02 4.774716217070817947e-03 -1.614400371909141541e-02 1.145406067371368408e-02
-2.626159042119979858e-02 -9.047879837453365326e-03 1.715520583093166351e-02 1.768814027309417725e-02 -2.171919867396354675e-02 4.041663836687803268e-03
-3.401643782854080200e-02 -1.799243874847888947e-02 1.594249345362186432e-02 2.596558816730976105e-02 -2.501666359603404999e-02 -1.015032175928354263e-03
-3.957259654998779297e-02 -2.586067095398902893e-02 1.363928895443677902e-02 3.263892978429794312e-02 -2.666003257036209106e-02 -6.090748589485883713e-03
-4.406979307532310486e-02 -3.286623954772949219e-02 1.118418853729963303e-02 3.840007260441780090e-02 -2.768721990287303925e-02 -1.081933733075857162e-02
-4.705765843391418457e-02 -3.659666702151298523e-02 1.051205489784479141e-02 4.179362952709197998e-02 -2.883334271609783173e-02 -1.300823409110307693e-02
-4.946175590157508850e-02 -3.862717747688293457e-02 1.092598307877779007e-02 4.402787610888481140e-02 -3.021090105175971985e-02 -1.379464566707611084e-02
-5.296069756150245667e-02 -4.284538701176643372e-02 1.020632032305002213e-02 4.787013679742813110e-02 -3.156346455216407776e-02 -1.625885441899299622e-02
-5.681399255990982056e-02 -4.841583594679832458e-02 8.478255942463874817e-03 5.255312472581863403e-02 -3.259927779436111450e-02 -1.993120275437831879e-02
-5.832724273204803467e-02 -5.094188824295997620e-02 7.456873543560504913e-03 5.457485094666481018e-02 -3.283983096480369568e-02 -2.174283005297183990e-02
-5.700934678316116333e-02 -5.002657696604728699e-02 7.029046770185232162e-03 5.351482331752777100e-02 -3.199198842048645020e-02 -2.152642793953418732e-02
-5.539957806468009949e-02 -4.906978085637092590e-02 6.324232090264558792e-03 5.229933559894561768e-02 -3.087247349321842194e-02 -2.139400877058506012e-02
-5.477321147918701172e-02 -4.840266332030296326e-02 6.306436378508806229e-03 5.165860056877136230e-02 -3.055022098124027252e-02 -2.103590220212936401e-02
-5.406506359577178955e-02 -4.592550918459892273e-02 8.051306009292602539e-03 5.000649765133857727e-02 -3.101549483835697174e-02 -1.890249364078044891e-02
-5.340160802006721497e-02 -4.303699731826782227e-02 1.030121650546789169e-02 4.818038269877433777e-02 -3.176223486661911011e-02 -1.635350659489631653e-02
-5.407768115401268005e-02 -4.294646531343460083e-02 1.108751073479652405e-02 4.848928004503250122e-02 -3.251726180315017700e-02 -1.596206985414028168e-02
-5.530142784118652344e-02 -4.446383938193321228e-02 1.076084375381469727e-02 4.990759491920471191e-02 -3.304137289524078369e-02 -1.691160351037979126e-02
-5.492467805743217468e-02 -4.391086474061012268e-02 1.089503802359104156e-02 4.945161566138267517e-02 -3.298063948750495911e-02 -1.654334552586078644e-02
-5.292965471744537354e-02 -4.159004986286163330e-02 1.121954433619976044e-02 4.725308716297149658e-02 -3.216301649808883667e-02 -1.516244933009147644e-02
-5.091336742043495178e-02 -3.955701738595962524e-02 1.125697232782840729e-02 4.518988355994224548e-02 -3.116263635456562042e-02 -1.409408636391162872e-02
-4.814607277512550354e-02 -3.465707972645759583e-02 1.339547056704759598e-02 4.136255383491516113e-02 -3.082872740924358368e-02 -1.059910841286182404e-02
-4.169813543558120728e-02 -2.139693312346935272e-02 2.018890716135501862e-02 3.154780343174934387e-02 -3.099025413393974304e-02 -6.225949036888778210e-04
-3.072926588356494904e-02 -7.759818690828979015e-04 2.982656843960285187e-02 1.578492671251296997e-02 -3.033005073666572571e-02 1.448430307209491730e-02
-1.745390705764293671e-02 2.040751650929450989e-02 3.776728361845016479e-02 -1.444930210709571838e-03 -2.767695114016532898e-02 2.908146753907203674e-02
-4.586726427078247070e-03 3.787982463836669922e-02 4.244161769747734070e-02 -1.664149574935436249e-02 -2.358085475862026215e-02 4.022642225027084351e-02
5.826300941407680511e-03 5.263437330722808838e-02 4.683169722557067871e-02 -2.924772351980209351e-02 -2.053759247064590454e-02 4.983697831630706787e-02
1.226310525089502335e-02 6.753862649202346802e-02 5.529335141181945801e-02 -3.990866243839263916e-02 -2.150245569646358490e-02 6.147390231490135193e-02
1.467729173600673676e-02 8.442527800798416138e-02 6.972799450159072876e-02 -4.953343421220779419e-02 -2.748558484017848969e-02 7.704480737447738647e-02
1.535280980169773102e-02 1.018052622675895691e-01 8.641850948333740234e-02 -5.856180936098098755e-02 -3.549357503652572632e-02 9.402862936258316040e-02
1.689512096345424652e-02 1.144034340977668762e-01 9.752071648836135864e-02 -6.566009670495986938e-02 -4.029022529721260071e-02 1.058913394808769226e-01
1.882821880280971527e-02 1.184813752770423889e-01 9.973037242889404297e-02 -6.868132203817367554e-02 -4.044812545180320740e-02 1.090795397758483887e-01
1.893418096005916595e-02 1.180766522884368896e-01 9.921919554471969604e-02 -6.850405037403106689e-02 -4.013754799962043762e-02 1.086615473031997681e-01
1.899074576795101166e-02 1.199634224176406860e-01 1.009773239493370056e-01 -6.940502673387527466e-02 -4.096232354640960693e-02 1.104881241917610168e-01
2.447066642343997955e-02 1.231596842408180237e-01 9.863261878490447998e-02 -7.368247956037521362e-02 -3.703417629003524780e-02 1.108699217438697815e-01
3.614798560738563538e-02 1.196928396821022034e-01 8.349899202585220337e-02 -7.780443876981735229e-02 -2.364192716777324677e-02 1.015191450715065002e-01
4.582146927714347839e-02 1.047096848487854004e-01 5.889720097184181213e-02 -7.523494958877563477e-02 -6.526484619826078415e-03 8.173309266567230225e-02
4.255819320678710938e-02 8.157898485660552979e-02 3.906774520874023438e-02 -6.211361661553382874e-02 1.754837925545871258e-03 6.032012030482292175e-02
2.170847728848457336e-02 5.481196194887161255e-02 3.316375240683555603e-02 -3.831554576754570007e-02 -5.689977202564477921e-03 4.404718428850173950e-02
-1.053008716553449631e-02 2.440084889531135559e-02 3.501430898904800415e-02 -6.940742954611778259e-03 -2.270778454840183258e-02 2.976107597351074219e-02
-4.057674854993820190e-02 -8.267406374216079712e-03 3.244337067008018494e-02 2.448418550193309784e-02 -3.647633269429206848e-02 1.207940652966499329e-02
-5.804629623889923096e-02 -3.595715016126632690e-02 2.227790281176567078e-02 4.709661751985549927e-02 -4.021414741873741150e-02 -6.885599810630083084e-03
-6.283736974000930786e-02 -5.248681828379631042e-02 1.056384667754173279e-02 5.774097889661788940e-02 -3.681674972176551819e-02 -2.097602002322673798e-02
-6.269519776105880737e-02 -6.060871109366416931e-02 2.278654137626290321e-03 6.170142069458961487e-02 -3.259256482124328613e-02 -2.912145294249057770e-02
-6.484141945838928223e-02 -6.702976673841476440e-02 -2.064565895125269890e-03 6.596706807613372803e-02 -3.143712133169174194e-02 -3.447703644633293152e-02
-6.990346312522888184e-02 -7.300766557455062866e-02 -3.071904415264725685e-03 7.147553563117980957e-02 -3.342035785317420959e-02 -3.798246011137962341e-02
-7.454449683427810669e-02 -7.672527432441711426e-02 -2.211092738434672356e-03 7.564835995435714722e-02 -3.615905717015266418e-02 -3.944214805960655212e-02
-7.752428203821182251e-02 -8.041241765022277832e-02 -2.921376377344131470e-03 7.899985462427139282e-02 -3.730056434869766235e-02 -4.167941212654113770e-02
-7.967680692672729492e-02 -8.715935051441192627e-02 -7.487580645829439163e-03 8.350930362939834595e-02 -3.610862046480178833e-02 -4.736313223838806152e-02
-8.068347722291946411e-02 -9.416191279888153076e-02 -1.346387714147567749e-02 8.759236335754394531e-02 -3.362945094704627991e-02 -5.384215340018272400e-02
-8.048766106367111206e-02 -9.680588543415069580e-02 -1.627890393137931824e-02 8.885601907968521118e-02 -3.210325166583061218e-02 -5.653943866491317749e-02
-8.171009272336959839e-02 -9.680735319852828979e-02 -1.501749455928802490e-02 8.943057060241699219e-02 -3.330421447753906250e-02 -5.591198429465293884e-02
-8.578720688819885254e-02 -9.876365959644317627e-02 -1.288482174277305603e-02 9.235428273677825928e-02 -3.638140484690666199e-02 -5.587017536163330078e-02
-8.904585987329483032e-02 -1.012827679514884949e-01 -1.219477225095033646e-02 9.516312927007675171e-02 -3.837646171450614929e-02 -5.680890381336212158e-02
-8.799017965793609619e-02 -1.000016257166862488e-01 -1.205818541347980499e-02 9.398151189088821411e-02 -3.797363117337226868e-02 -5.605835095047950745e-02
-8.797658979892730713e-02 -9.853313118219375610e-02 -1.066887937486171722e-02 9.327656775712966919e-02 -3.869635984301567078e-02 -5.456439778208732605e-02
-1.009795442223548889e-01 -1.074237376451492310e-01 -6.529925856739282608e-03 1.042591929435729980e-01 -4.725812748074531555e-02 -5.691129341721534729e-02
-1.297040283679962158e-01 -1.284098923206329346e-01 1.324607757851481438e-03 1.291316449642181396e-01 -6.553731858730316162e-02 -6.349486112594604492e-02
-1.500688642263412476e-01 -1.388391554355621338e-01 1.137117575854063034e-02 1.445316970348358154e-01 -8.076926320791244507e-02 -6.372474133968353271e-02
-1.080951914191246033e-01 -8.749728649854660034e-02 2.072557620704174042e-02 9.784172475337982178e-02 -6.448138505220413208e-02 -3.340522944927215576e-02
5.142194777727127075e-02 8.022387325763702393e-02 2.874908968806266785e-02 -6.588038802146911621e-02 1.133830659091472626e-02 5.446325242519378662e-02
3.234180510044097900e-01 3.549643456935882568e-01 3.122426569461822510e-02 -3.393979370594024658e-01 1.462685614824295044e-01 1.930875629186630249e-01
5.987250208854675293e-01 6.161127686500549316e-01 1.685258187353610992e-02 -6.077347397804260254e-01 2.912533879280090332e-01 3.164983093738555908e-01
7.086197137832641602e-01 7.037801742553710938e-01 -5.427060183137655258e-03 -7.065218091011047363e-01 3.573611080646514893e-01 3.491964638233184814e-01
5.572572946548461914e-01 5.675015449523925781e-01 9.781390428543090820e-03 -5.626080036163330078e-01 2.739744484424591064e-01 2.886340618133544922e-01
2.238720953464508057e-01 3.036100268363952637e-01 7.951587438583374023e-02 -2.638339400291442871e-01 7.226682454347610474e-02 1.915190070867538452e-01
-1.007072329521179199e-01 3.475512936711311340e-02 1.354674398899078369e-01 3.297546878457069397e-02 -1.180856600403785706e-01 8.505661785602569580e-02
-2.752428054809570312e-01 -1.810084730386734009e-01 9.433771669864654541e-02 2.281347215175628662e-01 -1.847683638334274292e-01 -4.336990788578987122e-02
-2.894336879253387451e-01 -3.173137605190277100e-01 -2.780921198427677155e-02 3.033573627471923828e-01 -1.307275891304016113e-01 -1.725739836692810059e-01
-2.172325700521469116e-01 -3.488245606422424316e-01 -1.315988302230834961e-01 2.830052971839904785e-01 -4.270612448453903198e-02 -2.402270138263702393e-01
-1.326527148485183716e-01 -2.854881882667541504e-01 -1.528846025466918945e-01 2.090562283992767334e-01 1.020094286650419235e-02 -2.192270308732986450e-01
-7.389954477548599243e-02 -1.855389028787612915e-01 -1.116634905338287354e-01 1.296961158514022827e-01 1.891251467168331146e-02 -1.486648619174957275e-01
-4.832734540104866028e-02 -1.094025894999504089e-01 -6.103073060512542725e-02 7.880859076976776123e-02 6.335536483675241470e-03 -8.528111875057220459e-02
-4.434986412525177002e-02 -7.646562159061431885e-02 -3.200693055987358093e-02 6.032988801598548889e-02 -6.193578708916902542e-03 -5.428314954042434692e-02
-4.530879110097885132e-02 -6.992873549461364746e-02 -2.446945384144783020e-02 5.755487456917762756e-02 -1.041612029075622559e-02 -4.723116755485534668e-02
-4.284459725022315979e-02 -6.881628185510635376e-02 -2.578777633607387543e-02 5.579124391078948975e-02 -8.504618890583515167e-03 -4.732747748494148254e-02
-3.784844651818275452e-02 -6.501384079456329346e-02 -2.696544118225574493e-02 5.139596015214920044e-02 -5.418831016868352890e-03 -4.599966853857040405e-02
-3.224258497357368469e-02 -5.746328458189964294e-02 -2.505764178931713104e-02 4.481422901153564453e-02 -3.584145801141858101e-03 -4.123998805880546570e-02
-2.592006139457225800e-02 -4.665239155292510986e-02 -2.063622139394283295e-02 3.627773746848106384e-02 -2.653324278071522713e-03 -3.358864039182662964e-02
-2.003356069326400757e-02 -3.719551861286163330e-02 -1.709799282252788544e-02 2.867679484188556671e-02 -1.499695703387260437e-03 -2.707464434206485748e-02
-1.680381782352924347e-02 -3.455285355448722839e-02 -1.767250895500183105e-02 2.580215036869049072e-02 3.909163933712989092e-04 -2.605596370995044708e-02
-1.519266981631517410e-02 -3.651808574795722961e-02 -2.123838104307651520e-02 2.598349936306476593e-02 2.987206680700182915e-03 -2.884809300303459167e-02
-1.152746565639972687e-02 -3.558822348713874817e-02 -2.398712933063507080e-02 2.363089844584465027e-02 6.214939989149570465e-03 -2.976448833942413330e-02
-5.116892978549003601e-03 -2.990462444722652435e-02 -2.471111714839935303e-02 1.751657202839851379e-02 9.781635366380214691e-03 -2.727125585079193115e-02
8.310578414238989353e-04 -2.434596978127956390e-02 -2.506033144891262054e-02 1.173752825707197189e-02 1.289494056254625320e-02 -2.465174719691276550e-02
4.376927856355905533e-03 -2.136431820690631866e-02 -2.560411207377910614e-02 8.491116575896739960e-03 1.492045354098081589e-02 -2.341921627521514893e-02
7.328856270760297775e-03 -1.839118264615535736e-02 -2.561069279909133911e-02 5.550030618906021118e-03 1.644292846322059631e-02 -2.191583253443241119e-02
1.144327875226736069e-02 -1.445946469902992249e-02 -2.583060227334499359e-02 1.527883228845894337e-03 1.867601834237575531e-02 -2.004050463438034058e-02
1.595990173518657684e-02 -1.171606499701738358e-02 -2.762421220541000366e-02 -2.117423573508858681e-03 2.184389904141426086e-02 -1.956116780638694763e-02
2.036154456436634064e-02 -9.887460619211196899e-03 -3.022675774991512299e-02 -5.246324930340051651e-03 2.530039101839065552e-02 -1.996509358286857605e-02
2.541995979845523834e-02 -6.466569378972053528e-03 -3.192537650465965271e-02 -9.481755085289478302e-03 2.863830514252185822e-02 -1.913986355066299438e-02
3.090879879891872406e-02 -2.294466597959399223e-03 -3.327876329421997070e-02 -1.430016569793224335e-02 3.206530585885047913e-02 -1.777682080864906311e-02
3.580025583505630493e-02 -1.646228047320619226e-04 -3.598418831825256348e-02 -1.781852170825004578e-02 3.590559959411621094e-02 -1.809263788163661957e-02
4.035400226712226868e-02 9.138428722508251667e-04 -3.934368118643760681e-02 -2.066029049456119537e-02 3.990077227354049683e-02 -1.920473948121070862e-02
4.544351249933242798e-02 3.566807834431529045e-03 -4.172299802303314209e-02 -2.454191260039806366e-02 4.363667219877243042e-02 -1.900680735707283020e-02
5.050050094723701477e-02 6.002851761877536774e-03 -4.441258683800697327e-02 -2.827164903283119202e-02 4.748224094510078430e-02 -1.912049949169158936e-02
5.434853583574295044e-02 4.668185021728277206e-03 -4.970936477184295654e-02 -2.951150760054588318e-02 5.202613025903701782e-02 -2.249349281191825867e-02
5.782115459442138672e-02 1.394327147863805294e-03 -5.650043487548828125e-02 -2.961837686598300934e-02 5.714494362473487854e-02 -2.759452350437641144e-02
6.295181065797805786e-02 1.230761292390525341e-03 -6.178485974669456482e-02 -3.212524950504302979e-02 6.236449629068374634e-02 -3.034815751016139984e-02
6.913319230079650879e-02 4.155942704528570175e-03 -6.507221609354019165e-02 -3.669130429625511169e-02 6.712747365236282349e-02 -3.052091784775257111e-02
7.351525127887725830e-02 5.963355768471956253e-03 -6.773953139781951904e-02 -3.977190330624580383e-02 7.066391408443450928e-02 -3.093069419264793396e-02
7.552666217088699341e-02 6.480398122221231461e-03 -6.929583102464675903e-02 -4.100606590509414673e-02 7.242512702941894531e-02 -3.143139928579330444e-02
7.758909463882446289e-02 9.526894427835941315e-03 -6.827355176210403442e-02 -4.354701563715934753e-02 7.289989292621612549e-02 -2.937510609626770020e-02
8.094695955514907837e-02 1.556843239814043045e-02 -6.549001485109329224e-02 -4.826509580016136169e-02 7.314379513263702393e-02 -2.494270913302898407e-02
8.468356728553771973e-02 2.245376631617546082e-02 -6.224260106682777405e-02 -5.361564457416534424e-02 7.337813079357147217e-02 -1.986266858875751495e-02
8.862160146236419678e-02 3.201600909233093262e-02 -5.654402077198028564e-02 -6.040341407060623169e-02 7.251833379268646240e-02 -1.221497822552919388e-02
9.280923753976821899e-02 4.728034511208534241e-02 -4.544277489185333252e-02 -7.013098895549774170e-02 6.908391416072845459e-02 9.808246977627277374e-04
9.437754750251770020e-02 6.408152729272842407e-02 -3.027395717799663544e-02 -7.927125692367553711e-02 6.230559945106506348e-02 1.694493554532527924e-02
8.905335515737533569e-02 7.369440048933029175e-02 -1.546451356261968613e-02 -8.136282861232757568e-02 5.227245017886161804e-02 2.910737134516239166e-02
7.626922428607940674e-02 7.318004965782165527e-02 -3.275961149483919144e-03 -7.469821721315383911e-02 3.981362283229827881e-02 3.491669148206710815e-02
5.945011600852012634e-02 6.599412113428115845e-02 6.408988032490015030e-03 -6.271414458751678467e-02 2.654660679399967194e-02 3.617950901389122009e-02
4.121818765997886658e-02 5.406420305371284485e-02 1.284536439925432205e-02 -4.764780029654502869e-02 1.416362449526786804e-02 3.345575928688049316e-02
2.179553546011447906e-02 3.689950704574584961e-02 1.517856493592262268e-02 -2.934977225959300995e-02 3.255994291976094246e-03 2.604324556887149811e-02
2.223271876573562622e-03 1.762725971639156342e-02 1.542278937995433807e-02 -9.916858747601509094e-03 -6.636963225901126862e-03 1.651073060929775238e-02
-1.479039341211318970e-02 1.960108056664466858e-03 1.666695624589920044e-02 6.427858490496873856e-03 -1.573001034557819366e-02 9.276262484490871429e-03
-2.793101593852043152e-02 -9.160186164081096649e-03 1.866902224719524384e-02 1.855244301259517670e-02 -2.327773720026016235e-02 4.710771609097719193e-03
-3.810316696763038635e-02 -1.921751536428928375e-02 1.886558718979358673e-02 2.867994643747806549e-02 -2.846550568938255310e-02 -2.172781969420611858e-04
-4.574313759803771973e-02 -2.855709195137023926e-02 1.724265888333320618e-02 3.722368925809860229e-02 -3.149749338626861572e-02 -5.709616001695394516e-03
-5.030387267470359802e-02 -3.430462628602981567e-02 1.603729091584682465e-02 4.241839796304702759e-02 -3.319002315402030945e-02 -9.205672889947891235e-03
-5.308768525719642639e-02 -3.773096948862075806e-02 1.529594324529170990e-02 4.547941312193870544e-02 -3.420322760939598083e-02 -1.129411812871694565e-02
-5.684771761298179626e-02 -4.357816651463508606e-02 1.310799829661846161e-02 5.018894374370574951e-02 -3.498072177171707153e-02 -1.529898680746555328e-02
-6.158131361007690430e-02 -5.121300369501113892e-02 1.016111206263303757e-02 5.632468312978744507e-02 -3.589528426527976990e-02 -2.058210410177707672e-02
-6.453714519739151001e-02 -5.473377183079719543e-02 9.629487991333007812e-03 5.958506837487220764e-02 -3.715300932526588440e-02 -2.261744067072868347e-02
-6.498333066701889038e-02 -5.331421643495559692e-02 1.158648449927568436e-02 5.913652107119560242e-02 -3.838856145739555359e-02 -2.093434892594814301e-02
-6.481623649597167969e-02 -5.173579230904579163e-02 1.308351848274469376e-02 5.826859176158905029e-02 -3.905140981078147888e-02 -1.936544664204120636e-02
-6.449248641729354858e-02 -5.088259652256965637e-02 1.365373749285936356e-02 5.766738578677177429e-02 -3.913385048508644104e-02 -1.860470138490200043e-02
-6.274504214525222778e-02 -4.773896932601928711e-02 1.506107579916715622e-02 5.522771552205085754e-02 -3.890146687626838684e-02 -1.631352677941322327e-02
-6.048275530338287354e-02 -4.373835772275924683e-02 1.681682094931602478e-02 5.210107937455177307e-02 -3.859394043684005737e-02 -1.345293596386909485e-02
-6.034539267420768738e-02 -4.357270896434783936e-02 1.687406003475189209e-02 5.192461609840393066e-02 -3.852903842926025391e-02 -1.334337610751390457e-02
-6.203294172883033752e-02 -4.637683555483818054e-02 1.577888987958431244e-02 5.415716022253036499e-02 -3.883725404739379883e-02 -1.525928918272256851e-02
-6.233445554971694946e-02 -4.689570888876914978e-02 1.556974183768033981e-02 5.461454018950462341e-02 -3.892356157302856445e-02 -1.558697503060102463e-02
-5.998640507459640503e-02 -4.435030743479728699e-02 1.576119288802146912e-02 5.223898589611053467e-02 -3.788180276751518250e-02 -1.421776320785284042e-02
-5.662310495972633362e-02 -4.170639812946319580e-02 1.500716432929039001e-02 4.926828294992446899e-02 -3.583006560802459717e-02 -1.330214925110340118e-02
